2583945171
64
0
0
0
0
0
0
0
0
0
0
0
0.01
0.01
0
-0.03
-0.05
-0.05
0
0.13
0.36
0.66
1.01
1.37
1.72
2.06
2.4
2.79
3.24
3.8
4.42
5.06
5.66
6.2
6.68
7.15
7.68
8.31
9.14
10.09
11.04
11.88
12.56
13.14
13.76
14.65
15.96
17.91
20.32
22.9
25.38
27.59
29.59
31.71
34.37
37.88
42.64
48.27
54.27
60.04
65.22
69.87
74.48
79.74
86.16
94.28
103.57
113.26
122.44
130.55
137.6
144.23
151.76
158.88
167.84
179.25
193.2
208.5
222.24
230.07
227.37
210.74
179.31
135.45
83.02
26.34
-31.34
-88.46
-144.77
-200.39
-255.02
-307.84
-357.38
-402.7
-443.09
-477.96
-506.44
-527.12
-538.25
-538.07
-525.5
-500.3
-463.68
-417.75
-365.13
-308.44
-249.95
-191.33
-133.88
-78.67
-26.62
21.14
63.63
100.02
129.9
153.28
170.6
182.56
189.91
193.36
193.43
190.59
185.22
177.79
168.63
158.26
147.23
135.99
124.94
114.32
104.32
95.05
86.64
79.21
72.81
67.44
63.01
59.38
56.36
53.77
51.49
49.46
47.64
46.01
44.56
43.23
41.95
40.61
39.13
37.48
35.64
33.65
31.55
29.43
27.47
25.79
24.54
23.89
24.06
25.18
27.23
30.06
33.43
37.06
40.51
43.39
45.83
48.03
50.23
52.65
55.33
58.32
62.3
67.76
74.96
82.56
89.67
95.55
100.34
104.05
106.73
108.53
109.51
109.75
109.38
108.65
107.78
106.93
106.09
105.22
104.27
103.17
101.87
100.33
98.72
97.2
95.91
94.87
94.07
93.47
92.87
92.1
90.94
89.29
87.02
84.04
80.16
75.28
69.27
62.08
53.71
44.24
33.87
22.84
11.45
0.05
-10.95
-21.03
-29.63
-36.2
-40.21
-41.21
-38.87
-33.08
-23.99
-12.03
2.14
17.7
33.69
49.16
63.18
75.04
84.23
90.5
93.83
94.41
92.6
88.84
83.62
77.39
70.59
63.56
56.58
49.82
43.45
37.54
32.2
27.55
23.66
20.61
18.45
17.19
16.84
17.29
18.43
20.05
21.94
23.9
25.73
27.21
28.18
28.45
27.92
26.53
24.21
20.98
16.94
12.27
7.18
1.96
-3.15
-7.9
-12.09
-15.59
-18.45
-20.76
-22.73
-24.66
-26.88
-29.69
-33.31
-37.76
-42.87
-48.29
-53.57
-58.16
-61.6
-63.45
-63.49
-61.7
-58.21
-53.37
-47.56
-41.28
-35.05
-29.37
-24.73
-21.5
-19.92
-20.11
-21.96
-25.23
-29.54
-34.46
-39.79
-45.42
-51.36
-57.76
-64.68
-72.12
-79.93
-87.85
-95.53
-102.87
-110.2
-118.04
-127.09
-137.98
-150.93
-165.64
-181.46
-197.34
-212.4
-226.27
-238.93
-250.46
-260.54
-268.09
-271.32
-268.26
-257.44
-238.72
-213.72
-185.5
-157.76
-133.54
-114.46
-100.29
-89.76
-81.74
-76
-73.7
-76.61
-86.44
-103.73
-128.09
-158.55
-193.9
-232.21
-269.67
-300.13
-316
-311.55
-285.86
-244.96
-200.33
-164.64
-146.24
-145.62
-155.65
-165.5
-166.26
-154.24
-131.74
-103.66
-73.99
-43.85
-12.47
20.16
51.11
74.45
83.86
76.3
54.98
29.37
11.22
9.29
24.86
50.62
74.52
85.76
80.34
62.88
43.83
33.25
35.11
45.23
54.1
53.08
40.2
21.35
6.8
5.16
17.86
38.46
56.22
61.89
53.12
35.64
19.83
14.61
22.07
35.9
45.1
40.81
21.6
-4.87
-25.99
-31.38
-18.9
3.97
24.26
30.95
21.64
3.61
-10.48
-9.99
7.38
34.3
58.32
68.57
61.62
43.03
23.54
12.88
14.51
23.94
31.99
31.08
20
4.64
-5.66
-4.38
7.85
23.54
32.57
28.29
12.03
-7.39
-18.8
-15.08
2.48
24.54
39.52
39.88
26.28
6.98
-7.09
-8.57
2.51
18.97
30.8
31.12
20.4
5.71
-3.45
-0.97
12
28.11
38.1
35.99
22.83
6.08
-4.97
-4.48
6.49
20.38
27.94
24.04
10.31
-5.46
-13.98
-10.19
3.98
20.69
30.55
28.09
15.24
-0.21
-9.04
-6.01
6.73
21.3
28.96
25.04
11.83
-2.92
-10.93
-8.14
3.11
15.34
20.73
16.02
4.06
-7.87
-12.41
-6.71
6.1
18.95
24.62
19.8
6.95
-7.24
-15.59
-14.27
-4.98
6.2
12.68
11.15
3.41
-4.74
-7.37
-2.02
8.81
19.07
22.72
17.65
6.95
-3.01
-6.19
-0.5
10.96
21.89
26.35
21.89
10.89
-0.89
-7.63
-6.47
1
9.62
13.84
11.15
3.35
-4.25
-6.08
0.1
11.78
23.06
27.74
23.14
11.88
0.2
-5.43
-2.09
7.77
17.89
22.19
17.98
7.66
-2.87
-7.99
-5.46
2.19
9.17
9.75
2.42
-9.15
-17.76
-16.69
-4.19
15.12
32.62
39.88
33.59
17.62
0.96
-7.13
-2.33
12.16
27.46
34.49
29.16
14.68
-0.41
-7.43
-2.67
10.62
24.07
28.98
21.78
6.27
-8.52
-13.56
-5.4
11.24
26.29
30.16
19.18
-1.65
-21.57
-30.19
-23.44
-6.07
11.19
18.15
11.56
-3.47
-16.5
-18.17
-6.11
13.84
31.19
36.7
27.72
9.82
-6.93
-13.64
-7.66
5.8
17.13
18.42
7.86
-9.06
-22.91
-26.16
-17.5
-2.33
10.28
13.03
4.94
-8.68
-19.38
-20.65
-11.71
2.17
13.28
15.61
8.23
-4.26
-14.72
-17.32
-10.66
1.41
12.02
15.65
11.01
1.84
-5.35
-5.44
2.22
13.48
21.72
21.66
12.89
0.1
-9.75
-11.31
-4.13
7.15
15.87
17.28
10.99
1.26
-5.91
-6.46
-0.39
8.24
13.76
12.43
5.03
-3.97
-8.66
-5.53
4.15
15.11
21.02
17.96
7.08
-5.74
-13.52
-11.82
-1.43
11.81
20.51
20.1
11.02
-1.45
-10.4
-11.47
-5.02
4.3
10.17
8.41
-0.49
-11.78
-19.12
-18.07
-8.88
3.66
13.26
15.19
9.19
-0.53
-7.92
-8.46
-1.76
8.26
15.53
16.11
10.22
2.33
-1.56
2.15
12.24
23.32
28.55
23.45
8.99
-8.7
-21.46
-23.37
-14.2
0.2
11.61
13.9
6.42
-5.58
-14.27
-13.9
-4.04
10.05
20.38
21.48
13.74
3.07
-2.55
1.92
14.99
29.78
37.74
33.48
18.4
0.11
-11.9
-11.54
0.14
15.11
23.33
18.73
2.64
-16.61
-28.35
-25.97
-10.52
9.86
24.35
25.78
14.9
-0.54
-10.32
-7.61
6.72
24.83
36.77
35.69
22.02
3.1
-11.45
-15.04
-7.98
2.63
7.22
0.19
-16.96
-35.99
-46.5
-42.37
-25.33
-3.93
11.05
12.8
2.65
-11.24
-18.53
-12.78
4.72
25.56
39.64
40.43
28.7
11.89
-0.76
-3.29
3.81
13.98
18.54
12.54
-2.29
-18.37
-26.5
-21.7
-6.52
10.74
20.35
16.7
1.99
-15.33
-25.33
-22.19
-7.62
10.05
21.32
20.83
10.15
-3.34
-11.23
-9.26
0.73
11.87
16.21
10.18
-3.23
-16.13
-20.13
-11.58
5.63
22.67
30.28
23.82
6.49
-12.66
-23.78
-21.43
-7.69
8.8
18.75
17.3
6.51
-5.8
-11.18
-5.93
7.23
20.48
25.25
18.03
2.44
-12.77
-18.31
-10.14
7.74
25.97
34.7
28.86
11.61
-7.91
-19.71
-18.37
-6.12
8.36
15.99
12.34
0.07
-12.53
-17.13
-10.7
3.07
15.57
18.09
7.87
-10.42
-27.1
-32.44
-22.64
-2.23
19.08
31.22
29.23
16.48
1.77
-5.82
-1.82
10.57
22.67
26.25
18.03
1.71
-13.84
-20.33
-15.01
-1.69
10.88
14.19
5.65
-10.53
-25.47
-30.45
-22.26
-5.16
12.37
21.72
19.19
8.46
-2.48
-5.97
1.03
14.61
26.37
29.03
20.08
3.51
-12.3
-19.93
-16.92
-6.73
3
4.98
-2.73
-16.04
-26.92
-27.83
-16.58
2.17
19.86
28.16
23.77
10.58
-3.18
-9.31
-4.34
8.45
21.11
26.21
20.86
8.35
-3.9
-9.34
-5.9
2.87
9.88
8.86
-1.46
-16.25
-27.24
-27.37
-15.41
3
18.44
22.73
13.6
-3.84
-20.12
-26.67
-20.37
-5.68
8.55
14.2
8.7
-3.5
-13.8
-14.62
-4.07
13.29
28.75
34.44
27.91
13.25
-1.05
-6.79
-1.04
12.13
24.29
27.45
18.88
2.97
-11.34
-15.92
-7.92
8.24
23.26
28.61
21.44
6.15
-8.16
-13.05
-6.13
7.98
20.6
23.96
16.03
1.39
-11.91
-17.02
-11.91
-0.93
8.22
9.02
0.01
-14.19
-25.52
-27.13
-17.82
-2.32
11.04
15.08
8.27
-4.57
-15.1
-16.64
-7.82
5.85
15.72
15.26
4.11
-10.95
-19.95
-15.59
1.93
25.11
42.62
45.66
32.95
11.14
-8.86
-18.04
-13.96
-2.31
7.31
7.17
-4.08
-20.12
-31.04
-29.4
-15.07
4.96
19.95
21.94
10.34
-7.91
-22.14
-24.24
-13.19
4.1
17.5
19.47
9.3
-6.29
-17.55
-17.63
-6.42
9.74
21.58
22.53
12.4
-2.84
-14.47
-16
-6.9
7
17.4
18.2
8.93
-4.88
-15.18
-16.33
-8.19
3.92
12.16
11.06
0.84
-12.81
-21.94
-20.71
-9.11
7
19.6
22.76
15.94
4.29
-4.81
-6.15
0.6
10.78
17.44
15.71
5.61
-8.13
-18.68
-20.81
-14.25
-3.65
4.41
4.94
-2.43
-13.08
-20.24
-19.08
-9.37
4.27
14.61
16.26
8.72
-3.5
-13.31
-14.87
-7.32
4.79
14.65
16.73
10.23
-0.42
-8.51
-9.15
-1.89
8.87
16.43
16.02
7.75
-3.44
-10.37
-7.64
4.61
20.28
30.9
29.92
16.76
-2.28
-17.39
-20.53
-9.74
9.53
27.15
34.12
27.56
12.05
-3.35
-10.34
-6.6
2.7
8.88
4.84
-9.86
-28.14
-39.47
-36
-17.22
9.33
31.79
40.62
33.72
17.45
2.71
-1
8.62
25.02
37.09
35.02
16.4
-11.93
-37.55
-49.07
-41.99
-21.08
2.51
17.88
20.33
13.63
6.76
7.86
18.37
31.42
36.64
26.33
1.21
-28.91
-50.11
-51.99
-33.17
-2.1
27.32
43.35
42.14
29.17
15.11
9.61
15.36
26.49
33
26.52
5.94
-21.45
-43.9
-51.82
-42.78
-22.78
-2.89
7.37
5.02
-4.86
-12.9
-11
2.25
20.12
32.19
29.96
12.42
-12.81
-33.21
-38.21
-24.67
1.21
27.26
42.12
41.29
29.3
15.84
9.98
14.02
22.48
26.2
18.57
0.5
-19.56
-30.31
-25.26
-6.58
15.35
27.59
22.13
0.41
-27.56
-49.1
-55.55
-47.2
-32.36
-21.81
-22.63
-34.14
-48.99
-58.13
-56.57
-45.98
-33.47
-26.86
-29.48
-37.94
-43.62
-38.06
-17.92
11.85
40.19
55.7
52.75
34.88
12.93
-0.47
2.27
19.96
43.42
60.89
64.48
54.36
38.24
26.24
25.04
33.42
42.96
43.4
28.92
2.22
-26.01
-42.65
-39.38
-17.24
13.62
39.25
49.25
42.25
25.94
11.98
9.31
18.68
32.07
38.01
28.42
3.82
-26.01
-47.39
-50.48
-34.72
-9.3
12.12
19.52
12.27
-0.78
-6.92
2.44
25.82
51.69
65.47
57.64
29.47
-7.58
-38.51
-53.02
-50.48
-39.32
-31.3
-34.02
-46.67
-60.83
-66.14
-56.74
-35.29
-11.88
2.16
0.66
-13.71
-31.01
-39.46
-32.32
-11.59
13.33
30.65
32.88
20.8
2.3
-12.66
-17.57
-13
-5.69
-3.41
-9.71
-21.2
-29
-24.13
-3.42
27.66
57.42
73.59
70.29
51.31
28.27
14.37
17.45
35.6
58.07
71.59
67.5
46.82
19.49
-1.39
-7.28
0.7
12.96
17.07
5.79
-17.94
-42.39
-53.41
-42.88
-13.98
19.8
42.18
42.98
23.52
-4.45
-25.92
-31.23
-21.51
-6.9
-0.17
-8.33
-28.26
-48.68
-57.12
-47.68
-24.85
-1.36
9.68
2.5
-17.64
-37.38
-42.8
-27.64
2.66
34.21
51.79
47.38
24.58
-3.93
-23.4
-24.99
-10.13
10.62
24.55
24.03
10.64
-6.06
-14.81
-9.57
6.35
22.84
28.36
17.26
-6.75
-32.63
-48.08
-46.27
-29.29
-7.07
8.7
10.77
0.23
-14.71
-23.78
-20.74
-7.46
7.96
15.52
9.75
-6.37
-22.81
-27.82
-14.93
13.21
45.13
67.06
70.12
55.34
32.9
16.51
15.38
28.4
45.22
51.77
38.55
6.56
-32.93
-64.66
-77.68
-71.25
-55.02
-42.01
-40.45
-47.84
-52.28
-39.97
-4.31
47.92
99.29
130.13
129.04
99.19
56.97
23.08
11.72
23.81
46.91
63.69
61.63
40.41
11.17
-10.4
-13.55
0.63
20.13
29.24
18
-11.96
-48.02
-74.62
-82.34
-73.25
-59.82
-56.47
-70.64
-97.08
-120.48
-123.84
-98.5
-50.18
3.26
41.11
50.4
32.41
1.8
-22.38
-26.85
-10.61
15.27
35.62
40.22
29.92
15.32
9.45
19.15
40.04
58.78
61.08
40.69
3.66
-33.73
-54.07
-48.29
-20.53
13.76
36.91
38.42
20.67
-3.35
-18.27
-15.52
1.53
19.89
25.33
11.22
-17.21
-44.98
-56.27
-43.39
-11.15
25.19
48.67
49.59
30.64
4.8
-12.54
-12.38
2.65
20.28
26.37
13.96
-12.48
-38.64
-49.02
-36.11
-4.72
29.78
50.45
47.81
25.07
-4.24
-24.31
-26.2
-12.71
3.71
9.12
-2.92
-27.37
-49.85
-55.34
-37.22
-1.27
36.69
59.75
58.91
37.84
10.16
-8.78
-10.73
0.99
14.09
15.63
0.47
-25.19
-46.85
-50.51
-31.22
3.62
37.78
55.37
49.53
26.32
0.86
-11.64
-4.38
17.1
38.38
45.22
32.08
5.52
-19.28
-27.7
-14.25
14.11
41.83
53.64
43.31
17.31
-9.23
-21.32
-12.64
10.74
33.78
41.69
28.43
0.34
-27.48
-40.26
-32.18
-9.84
11.93
18.71
5.21
-21.55
-46.42
-55.15
-42.49
-15.4
10.76
21.32
10.68
-14.67
-39.76
-50.06
-39.86
-15.6
8.3
17.66
6.99
-17.18
-40.49
-49.4
-38.94
-15.69
6.04
13.14
1.52
-21.45
-40.98
-43.82
-26.14
3.94
31.02
41.02
29.21
2.93
-23.01
-35.22
-28.95
-10.65
6.43
10.87
0.42
-16.52
-25.57
-15.31
15.16
54.82
86.28
94.92
76.8
40.92
3.75
-19.92
-24.4
-15.42
-5.46
-5.15
-16.27
-30.69
-35.2
-20.36
12.67
51.73
79.6
83.32
61.14
23.76
-11.69
-30.66
-28.29
-11.42
6.3
12.82
4.9
-10.38
-20.02
-13.86
8.44
36.18
53.21
47.12
16.84
-25.37
-59.94
-69.9
-49.95
-9.71
31.3
54
49.96
24.91
-5.03
-23.36
-22.86
-8.99
3.99
2.62
-17.45
-48.1
-74.16
-82.65
-70.5
-46.47
-25.44
-18.93
-27.51
-40.69
-42.6
-22.2
19.45
68.7
106.23
117.23
99.05
63.11
28.08
10.46
16.19
37.58
58.26
62.37
43.61
8.39
-27.85
-49.9
-51.72
-39.55
-28.07
-31.09
-52.92
-85.04
-110.93
-115.8
-95.47
-59.42
-25.23
-8.5
-13.25
-30.03
-41.23
-31.86
1.12
46.82
86.24
103.24
93.1
65.18
36.29
20.66
22.17
32.57
37.98
28.15
3.75
-23.6
-37.79
-28.07
3.94
44.54
74.78
80.73
60.64
26.14
-4.27
-14.89
-1.03
28.07
54.9
62.66
44.86
8.46
-30.25
-54.93
-58.67
-46.91
-33.69
-32
-45.59
-66.24
-79.46
-74.02
-49.68
-18.66
1.79
-0.54
-24.43
-55.32
-72.67
-61.6
-21.33
34.02
82.84
107.49
103.05
79.56
55.3
46.67
58.71
82.47
100.88
98.82
72.35
31.13
-7.56
-28.83
-28.86
-16.11
-5.09
-6.58
-20.58
-36.25
-39.49
-22.45
10.19
42.57
56.58
42.24
3.97
-40.98
-71.6
-74.14
-48.83
-9.6
24.34
38.68
31.18
11.62
-5.14
-8.17
2.71
17.53
22.92
10.86
-15.84
-44.75
-61.76
-59.59
-42.54
-24.29
-19.16
-33.13
-59.17
-80.24
-78.71
-46.72
8.17
65.78
103.39
107.41
80.31
39.22
6.54
-1.7
16.03
46.6
70.45
72.53
50.59
15.67
-15.19
-29.23
-25.19
-13.31
-7.74
-17.41
-40.35
-65.1
-78.66
-74.69
-57.7
-40.34
-35.39
-47.68
-70.72
-90.54
-93.96
-76.5
-45.23
-14.92
0.79
-3.03
-19.34
-33.07
-29.9
-4.25
36.67
76.41
97.89
92.78
65.87
32.54
10.13
8.5
25.18
47.34
60.14
55.71
38.12
20.66
17.31
33.47
61.63
85.29
88.65
65.96
25.74
-13.49
-33.49
-26.39
0.89
30.19
42.35
27.62
-8.84
-50.03
-76.1
-74.99
-48.87
-12.01
17.51
28.1
20.74
7.04
0.74
8.46
24.49
34.13
23.52
-11.37
-60.55
-104.92
-127.11
-121.08
-95.05
-66.71
-53.03
-61.18
-86.18
-114.91
-134.49
-139.56
-133.72
-124.85
-118.49
-113.39
-101.51
-73.52
-24.34
43.49
120.21
193.45
253.46
296.08
322.67
337.65
342.11
335.31
315.75
282.94
239.04
188.57
136.69
88.03
45.81
11.01
-16.63
-38.22
-55.21
-68.43
-78.09
-84.25
-86.93
-86.38
-83.57
-79.61
-75.51
-72.07
-69.64
-67.93
-66.59
-65.34
-64.14
-63.25
-62.96
-63.43
-64.74
-66.74
-69.3
-72.34
-75.89
-80.07
-84.97
-90.76
-97.47
-105.19
-113.87
-123.5
-133.9
-144.9
-156.09
-166.84
-176.66
-185.03
-191.65
-196.22
-198.64
-198.87
-196.81
-193.4
-187.93
-179.59
-167.48
-150.94
-129.69
-103.86
-74.22
-42.15
-9.44
21.97
50
72.95
89.65
99.65
103.21
101.22
95.04
86.28
76.76
67.71
60.1
54.3
50.17
47.32
45.24
43.32
41.23
38.94
36.54
34.11
31.71
29.31
26.91
24.36
21.42
18.05
14.06
9.28
3.46
-3.53
-11.59
-20.53
-29.95
-39.42
-48.26
-55.97
-62.21
-66.81
-69.7
-70.99
-70.73
-68.94
-66.47
-63.66
-60.72
-57.79
-54.95
-52.26
-49.83
-47.92
-46.62
-46.05
-46.12
-46.68
-47.61
-48.86
-50.42
-52.43
-54.98
-57.89
-60.78
-62.8
-63.07
-60.98
-56.4
-49.97
-42.74
-35.85
-29.92
-24.71
-18.88
-10.77
1.04
16.79
35.4
54.77
72.62
87.77
100.56
112.93
127.36
145.38
166.63
188.44
206.95
219.02
223.81
223.49
222.57
225.59
235.45
252.44
274.73
299.84
325.17
348.03
364.6
370.01
359.79
332.7
292.86
249.21
211.94
187.25
174.14
164.89
150.03
124.26
90.17
57.4
36.88
34.61
47.45
64.55
73.02
64.84
41.17
11.55
-11.39
-19.12
-11.54
2.49
10.7
4.1
-17.86
-47.12
-72.17
-84.64
-84.6
-79.74
-80.31
-92.09
-112.14
-130.12
-134.72
-121.08
-94.31
-67.72
-54.98
-62.36
-84.74
-108.01
-116.85
-102.98
-70.05
-31.35
-2.78
5.74
-4.91
-24.49
-40.09
-43.79
-36.68
-27.74
-27.06
-39.05
-58.88
-74.83
-75.24
-55.69
-22.67
9.73
27.05
22.6
0.8
-25.33
-41.93
-41.92
-28.41
-12.43
-5.42
-12.33
-28.22
-41.42
-40.61
-22.11
7.06
32.86
41.72
28.39
-1.14
-32.72
-51.98
-51.81
-35.81
-15.59
-3.37
-4.93
-16.16
-26.2
-24.38
-7.44
17.79
38.11
41.45
24.36
-5.76
-34.03
-46.39
-36.89
-10.99
17.73
35.29
34.89
20.35
2.89
-6.11
-2.38
8.62
15.49
8.34
-14.32
-43.8
-65.35
-66.69
-44.85
-8.66
25.7
43.31
38.19
16.17
-9.14
-23.91
-21.88
-7.14
9.12
15.82
8.87
-6.57
-19.44
-20.43
-7.93
10.11
20.79
14.23
-10
-41.65
-64.96
-66.93
-44.75
-7.33
29.44
50.96
51.4
35.69
15.66
2.5
0.68
5.83
8.78
2.16
-14.25
-32.63
-42.07
-35.46
-14.83
9
22.27
16.29
-6.93
-35.35
-52.93
-48.84
-23.18
12.39
41.25
50.7
38.69
14.83
-5.49
-9.36
6.06
32.68
56.06
63.85
52.53
29.09
6.54
-3.97
0.75
13.84
23.36
19.53
0.97
-24.27
-43.73
-47.74
-35.56
-15.55
-0.27
1.24
-11.18
-28.87
-39.87
-36.52
-19.97
-0.17
10.62
5.07
-14.57
-37.63
-51.49
-48.77
-31.97
-11.32
1.13
-1
-14.68
-29.56
-34.61
-25.23
-6.05
11.27
15.57
2.83
-20.93
-42.68
-50.08
-38.52
-14.28
9.39
19.6
11.58
-8.68
-27.67
-32.35
-17.87
9.7
36.2
47.88
38.93
15.17
-9.1
-19.15
-8.09
18.78
47.12
61.32
53.54
28.14
-0.42
-15.77
-8.87
16.94
47.35
65.57
61.45
37.31
6.61
-13.72
-12.71
8.25
36.78
56.39
56.02
35.97
7.32
-14.85
-20.25
-8.83
9.45
21.49
18.84
2.54
-18.09
-31.89
-32.88
-24.29
-15.88
-17.6
-32.58
-54.57
-71.32
-71.99
-54.08
-25.34
-0.07
9.25
-0.96
-23.07
-42.36
-45.41
-27.48
4.32
35.27
50.87
44.85
22.46
-2.87
-17
-12.98
5.8
27.86
40.94
39
25.32
9.83
2.09
5.13
12.99
15.06
3.04
-22.77
-52.39
-71.05
-67.69
-41.8
-4.33
27.49
39.47
27.99
1.58
-23.78
-33.64
-22.56
2.94
29.02
42.37
37.66
20.15
1.56
-7.25
-3.07
8.23
15.62
10.58
-7.17
-28.86
-41.62
-36.51
-14.08
14.68
34.62
34.58
13.91
-17
-42.26
-48.84
-33.57
-4.12
25.42
42.67
43.51
33.48
23.41
21.82
29.53
38.56
37.81
20.34
-11.3
-45.15
-66.05
-63.57
-38.22
-1.16
31.32
46.48
41.41
23.56
5.61
-2.69
0.19
6.75
6.33
-7.71
-32.81
-57.65
-68.52
-57.15
-26.49
10.51
37.3
42.73
26.94
0.77
-20.46
-25.66
-13.58
6.74
22.39
24.14
12.03
-4.79
-14.29
-8.99
8.51
27.1
33.38
20.04
-9.28
-41.41
-60.29
-55.95
-29.57
6.63
36.58
48.73
41.83
24.72
9.85
5.83
11.9
19.29
17.21
0.5
-26.11
-50.01
-57.96
-44.27
-14.61
16.01
31.77
24.71
-0.74
-29.86
-45.89
-38.81
-11
24.65
51.75
59.21
46.89
24.62
6.2
1.17
10.07
24.46
33.07
28.71
12.68
-6.31
-18.28
-18.12
-9.53
-2.25
-5.91
-23.33
-47.9
-66.88
-68.85
-50.94
-20.88
6.48
17.74
8.37
-14.63
-36.31
-42.44
-26.95
4.21
36.74
55.72
53.64
34.22
9.51
-7.01
-8.23
3.31
17.47
23.4
16.33
0.48
-13.48
-15.85
-4.02
14.71
27.32
22.82
-0.82
-34.41
-62
-69.1
-50.69
-13.8
25.91
52.38
57.12
42.69
20.32
2.82
-2.26
3.38
11.21
11.78
1.11
-16.23
-29.94
-30.38
-15.14
8.79
28.3
31.87
16.46
-10.32
-33.95
-41.28
-27.62
0.27
28.29
42.93
38.73
21.17
2.68
-5.04
1.56
15.93
25.53
19.95
-2.27
-32
-54.1
-56.22
-35.57
-1.37
30.48
45.95
40.28
20.09
-1.35
-12.05
-8.45
3.29
11.61
7.31
-10.35
-32.79
-46.93
-43.3
-21.68
7.56
29.29
31.79
13.32
-16.67
-42.8
-51.64
-39.05
-11.77
16.68
33.75
34.79
24.81
14.83
13.97
23.86
36.86
41.31
29.08
1.41
-30.53
-51.59
-50.62
-27.22
8.06
39.13
53.01
46.45
26.77
6.99
-2.65
-0.1
7.38
8.82
-3.19
-27.13
-52.41
-65.49
-57.24
-29.16
7.26
36.24
46.2
35.83
14.15
-4.94
-11.42
-4.3
7.73
12.6
2.55
-20.54
-45.53
-58.59
-50.86
-24.29
9.47
35.27
42.81
32.11
12.96
-1.11
-1.34
11.55
27.34
33.07
20.78
-7.31
-39.35
-60.57
-60.95
-41.18
-11.77
13.01
23.24
18.67
8.12
3.64
12.28
31.83
51.28
57.67
43.82
13.13
-21.57
-45.13
-47.81
-30.83
-5.05
15.53
21.8
14.51
3.18
-0.09
11.28
34.17
56.73
65.35
52.43
21.18
-15.74
-43.39
-52.23
-43.2
-26.36
-14.18
-14.03
-23.78
-33.49
-31.76
-13.28
17.46
47.93
64.26
58.95
35.02
4.5
-18.73
-26.33
-20.06
-10.22
-8.62
-21.22
-43.93
-64.77
-70.64
-55.26
-23.12
12.71
37.55
43.17
31.75
14.17
2.73
3.84
14.28
23.31
19.98
0.09
-30.26
-57.55
-68.04
-55.46
-24.85
10.25
34.93
40.94
30.55
14.54
4.87
7.44
18.69
27.91
24.63
5.49
-22.69
-46.24
-52.17
-35.74
-3.83
28.73
46.85
43.32
22.28
-3.6
-20.7
-21.98
-10.38
3.59
8.98
1.1
-15.34
-29.18
-29.97
-14.52
10.15
30.74
35.09
19.47
-8.87
-35.12
-44.75
-31.37
0.04
35.61
60.29
65.67
53.78
34.92
20.44
15.97
17.84
16.49
3.21
-23.14
-53.99
-75.25
-75.17
-51.68
-14.12
20.95
38.65
33.38
11.29
-13.6
-27.59
-24.39
-8.28
9.49
17.82
12.38
-1.73
-13.54
-13.15
1.51
23.1
38.64
37.32
17.2
-13.15
-38.84
-46.94
-33.4
-5.51
22.48
37.34
33.98
17.91
1.24
-4.85
2.84
17.85
28.09
23.52
2.64
-25.94
-48.05
-51.89
-34.59
-4.31
24.47
38.9
34.65
17.96
1.36
-4.01
4.64
20.23
30.15
24.1
0.73
-30.9
-56.03
-62.3
-46.58
-16.91
12.31
28.39
27.19
14.88
3.46
3.1
15.52
32.84
42.47
34.72
9.28
-23.95
-49.85
-56.18
-40.22
-10.24
19.16
35.26
33.75
20.51
7.28
4.04
12.76
25.99
31.73
20.9
-6.44
-40.15
-65.02
-68.8
-49.08
-14.63
19.22
38.98
39.87
27.64
14.05
9.19
15.05
24.32
25.66
11.11
-17.87
-50.09
-70.25
-67.28
-40.84
-1.87
32.87
49.67
44.57
24.64
2.97
-9.06
-8.05
0.04
4.92
-1.23
-18.19
-37.24
-46.4
-37.9
-13.7
14.95
33.19
31.14
9.59
-20.11
-42.09
-44.55
-25.96
3.97
30.41
41.44
34.51
17.21
1.9
-2.13
5.57
16.7
19.66
7.39
-17.59
-43.83
-57.06
-48.59
-20.29
15.33
42.17
48.78
34.34
8.66
-13.92
-22.46
-15.52
-0.94
9.31
6.93
-7.46
-24.64
-32.27
-22.94
1.2
28.43
44.12
38.83
13.71
-19.75
-46.09
-53.78
-41.43
-17.5
4.86
15.64
13.59
6.13
4.17
14.29
34.37
53.78
60.04
46.31
16.19
-17.42
-39.22
-39.27
-18.66
11.56
36.41
45.17
36.84
19.77
6.07
3.66
11.8
21.46
21.54
6.2
-20.69
-46.78
-58.26
-47.42
-17.9
16.91
40.9
43.73
26.2
-0.72
-22.34
-28.5
-18.69
-1.62
10.79
10.78
-0.56
-14.11
-18.94
-9.32
10.93
30.04
35.19
20.04
-10.89
-44.04
-63.6
-59.85
-34.24
1.48
31.6
44.82
39.66
24.31
10.54
6.47
11.63
17.67
14.57
-2.44
-28.77
-52.28
-60.16
-46.53
-16.6
15.63
34.56
31.62
9.7
-18.58
-37.88
-38.47
-21.08
3.88
23.1
27.8
18.67
4.67
-3.17
1.11
14.16
25.58
24.25
5.79
-23.86
-50.92
-61.24
-48.39
-17.42
17.05
38.99
39.13
19.67
-7.36
-27.11
-29.73
-15.62
5.97
22.7
26.52
18.15
5.9
-0.29
4.45
16.63
26.1
22.93
4.05
-23.98
-47.58
-54.02
-38.35
-7.17
24.76
42.1
37.12
13.79
-14.55
-32.15
-29.4
-7.27
23.19
47.49
55.3
45.7
26.69
9.49
1.96
3.72
7.48
4.36
-9.6
-30.03
-46.32
-48.21
-32.58
-6.25
17.07
24.51
11.64
-14.7
-39.46
-48.02
-33.9
-2.77
30.64
50.58
48.47
27.46
-0.03
-18.9
-19.74
-3.37
20.28
38.2
41.7
30.92
13.87
0.56
-3.25
0.17
2.44
-4.83
-23.9
-48.27
-65.79
-65.82
-45.97
-14.5
13.66
24.93
14.81
-9.45
-32.41
-39.11
-23.12
9.71
44.2
64.27
61.33
38.91
10.23
-8.96
-8.95
8.88
33.58
51.02
51.91
36.66
14.56
-2.28
-6.02
2.4
14.21
18.75
10.19
-8.73
-28.39
-38.44
-34.34
-20.59
-7.86
-6.47
-19.64
-41.12
-58.5
-60.77
-44.96
-18.34
5.26
13.61
3.04
-18.97
-38.14
-41.5
-24.82
4.54
31.91
43.32
33.47
8.86
-15.63
-25.06
-12.63
16.55
48.02
66.2
62.73
40.91
13.44
-4.81
-5.2
9.95
29.62
40.68
35.87
17.73
-3.38
-16.27
-15.82
-6.18
1.95
-1.38
-18.98
-43.92
-63.11
-64.98
-46.47
-15.6
12.81
25.03
16.22
-6.91
-29.61
-37.26
-23.26
7.43
40.81
61.75
61.89
43.85
18.66
-0.94
-7.9
-4.57
0.09
-3.23
-17.51
-36.96
-50.14
-47.35
-26.93
2.8
27.38
34.38
20.31
-7.22
-33.4
-44.03
-32.97
-5.44
25.41
45.48
47.32
33.7
15.15
3.08
2.96
11.3
18.14
14
-3.7
-28.21
-46.74
-47.97
-28.72
3.12
32.72
46.05
37.47
12.71
-14.54
-30.22
-27.57
-10.24
10.36
22.32
20.15
7.78
-4.33
-6.41
4.43
21.5
32.52
26.98
2.8
-31.55
-61.04
-71.73
-58.29
-26.74
8.7
33.18
38.93
28.59
12.65
2.27
2.7
10.18
15.05
8.58
-10.92
-35.96
-53.77
-53.7
-33.64
-2.17
25.69
36.49
25.64
-0.02
-25.83
-37.24
-27.51
-1.15
29.05
49.42
52.83
42.23
27.77
19.78
22.16
29.81
32.16
20.38
-6.39
-39.15
-63.33
-66.62
-45.94
-9.8
25.8
45.58
42.83
22.43
-2.55
-18.76
-19.78
-9.41
1.7
3.3
-7.98
-26.04
-39.12
-37.04
-17.67
10.99
34.82
41.46
27.23
-0.61
-27.59
-39.75
-31.06
-6.44
21.37
39.2
40.81
29.98
17.42
13.38
21.04
34.09
40.67
30.94
3.47
-32.81
-62.89
-73.57
-60.34
-29.99
3.07
24.49
27.44
15.6
0.27
-7.06
-1.56
11.99
22.7
20.74
3.99
-19.69
-36.85
-36.05
-14.79
18.39
48.14
60.47
50.04
22.67
-8
-28.57
-32.77
-24.43
-14.28
-12.91
-23.88
-41.12
-52.54
-47.22
-22.65
13.05
45.01
59.7
52.21
28.7
2.56
-13.69
-15
-6.29
1.52
-1.27
-16.8
-37.79
-51.54
-47.33
-22.98
13.13
45.94
61.59
54.78
31.3
4.5
-12.51
-14.04
-4.71
4.45
3.21
-11.23
-31.98
-46.52
-44.28
-23.15
8.54
36.18
46.89
36.39
11.25
-14.87
-28.92
-25.41
-9.12
8.32
15.74
9.21
-5.6
-17.06
-15.06
2.39
27.22
45.56
45.75
24.99
-8.61
-40.31
-56.34
-50.9
-28.92
-2.74
14.98
18.22
10.34
1.36
0.9
11.81
27.86
37.56
31.53
9.03
-20.48
-42.16
-43.94
-23.51
9.94
40.41
53.53
43.9
17.54
-11.72
-29.84
-29.66
-14.13
6.08
19.19
19.02
8.3
-3.82
-7.96
-0.78
12.47
21.38
17.24
-0.84
-24.54
-40.72
-39.44
-20.05
7.6
28.42
30.41
11.42
-19.41
-46.24
-54.88
-40.17
-8.55
25.36
46.65
47.73
32.02
11.06
-2.23
-0.98
12.05
26.96
33.19
26.17
9.97
-5.75
-12.49
-8.42
-0.09
1.85
-10.24
-35.58
-64.22
-81.77
-77.68
-51.42
-13.62
19.07
32.75
23.77
0.7
-20.4
-24.8
-7.29
24.91
56.3
71.68
64.21
39.04
9.83
-8.9
-9.52
5.02
23.63
34.02
29.65
13.14
-5.78
-16.62
-14.5
-3.2
7.48
8.03
-4.39
-23.91
-39.36
-41.49
-29.05
-10.26
2.04
-1.79
-22
-48.74
-67.34
-66.79
-45.92
-14.41
12.59
22.96
14.21
-4.96
-19.78
-17.76
4.18
37.7
67.53
79.8
69.72
44.13
17.67
4.53
10.73
30.96
51.97
60.27
49.58
24.18
-3.76
-21.31
-21.76
-8.32
8.24
16.14
9.51
-8.35
-27.21
-36.4
-31.38
-16.63
-2.71
0.46
-10.09
-28.35
-43.15
-45.27
-33.34
-15.1
-2.72
-5.38
-23.45
-47.81
-64.52
-62.85
-41.22
-8.53
20.42
32.88
25
3.92
-16.32
-22.33
-8.71
19.21
48.58
66.34
66.19
51.55
32.58
19.54
16.7
20.04
20.56
10.57
-10.8
-36.08
-53.04
-51.95
-31.48
-0.6
25.59
33.85
20.1
-8.05
-35.06
-45.62
-32.87
-2.02
32.72
55.93
59.13
44.74
23.42
7.14
2.09
5.47
8.2
1.49
-16.91
-40.31
-56.39
-54.49
-32.25
1.96
32.8
46.02
36.18
9.51
-19.59
-36.36
-33.61
-15.1
7.43
21.58
21.34
10.28
-1.55
-4.45
4.58
19.58
29.11
23.46
0.95
-30
-54.76
-60.33
-42.47
-8.49
26.32
46.72
45.36
26.18
1.44
-15.62
-18.12
-8.94
2.1
4.9
-4.54
-21.31
-34.55
-34.39
-18.16
7.14
28.22
33.04
17.82
-10.29
-36.58
-46.54
-33.56
-2.55
32.85
57.75
63.8
53.04
35.53
22.38
18.99
21.98
22.06
10.67
-13.98
-44.5
-67.82
-72.28
-54.14
-20.46
14.18
35.12
35.16
18.03
-4.14
-18.07
-16.71
-3.07
12.3
18.23
9.88
-7.88
-23.53
-25.96
-11.35
13.92
36.39
43.14
28.85
-0.98
-32.83
-52.34
-51.63
-33.23
-8.02
11.19
17
11.28
3.28
3.04
14.52
32.36
44.95
41.63
19.67
-13.07
-41.64
-52.03
-38.44
-6.78
28.28
51.06
52.69
35.16
9.57
-10.74
-17.41
-11.27
-0.9
3.37
-3.65
-18.48
-31.15
-31.8
-17.43
5.22
23.1
24.48
6.04
-24.5
-51.84
-61.36
-46.76
-13.68
23.01
47.17
49.47
31.96
6.4
-12.71
-15.92
-3.78
14.37
26.56
25.63
13.48
-0.57
-6.22
0.87
15.61
26.48
22.54
0.52
-32.35
-61.39
-72.28
-58.57
-25.56
12.13
38.19
42.85
27.52
3.44
-15.24
-19.29
-9.24
5.79
14.4
10.22
-4.03
-18.24
-21.37
-8.5
15.46
38.07
46.24
33.55
4.25
-28.62
-49.86
-49.77
-29.12
1.34
27.02
37.27
30.86
16.05
4.63
4.42
14.13
24.38
23.93
7.36
-20.63
-47.19
-58.35
-47.02
-17.37
16.93
40.06
42.08
23.96
-3.42
-25.74
-32.75
-23.44
-5.88
8.32
11.13
2.93
-7.86
-10.64
0.22
21.08
40.47
45.82
31.14
1.13
-30.73
-49.13
-45.12
-20.83
11.68
37.08
44.69
33.85
13.61
-3.32
-7.99
-0.36
10.99
14.8
4.53
-16.95
-38.41
-46.68
-34.37
-4.78
29.41
52.73
55.22
37.38
9.65
-13.75
-22.87
-17.23
-5.68
-0.48
-9.93
-32.93
-59.33
-75.55
-72.25
-49.69
-17.77
9.93
23.92
23.75
17.82
17.52
29.96
53.12
76.49
86.73
75.29
43.59
2.87
-31.39
-47.59
-43.94
-29.09
-16.59
-16.82
-30.96
-50.37
-62.11
-56.75
-34.12
-3.61
21.62
32.36
28.48
18.62
14.49
23.6
44.45
66.87
77.57
67.6
37.55
-2.07
-36.22
-53.02
-49.94
-34.7
-20.32
-17.29
-27.31
-42.5
-50.4
-41.74
-16.42
15.94
41.48
50.01
40.71
22.43
8.22
7.49
20.56
38.2
47.1
37.62
9.73
-26.43
-55.78
-66.32
-55.47
-31.22
-7.03
6.01
5.48
-1.54
-3.52
8.06
32.81
61.02
78.8
75.85
51.36
14.65
-19.78
-40.11
-42.99
-34.82
-27.03
-28.93
-41.81
-57.93
-65.1
-54.09
-24.7
13.23
44.61
57.12
47.81
24.46
0.67
-11.93
-10.01
0.2
7.55
3.28
-13.28
-33.82
-45.8
-39.97
-16.16
15.78
40.91
47.23
32.14
3.91
-22.96
-35.62
-29.6
-10.97
8.04
16.51
11.24
-1.57
-10.67
-7.37
8.73
28.82
39.97
32.9
7.72
-25.34
-50.92
-56.49
-38.78
-5.67
28
48.12
48.47
33.35
14.19
2.38
2.6
10.3
15.33
9.04
-9.75
-33.06
-48.29
-46
-25.67
2.9
24.88
28.57
11.99
-15.88
-39.63
-45.68
-29.31
2.97
37.07
58.86
61.49
48.32
29.72
16.39
12.95
15.53
15.14
4.28
-17.58
-42.63
-58.79
-57.1
-37.21
-8.58
14.21
19.5
5.02
-20.56
-41.96
-45.46
-26.3
8.72
44.78
66.87
67.51
50.18
26.29
8.54
3.69
9.44
16.8
16.38
4.47
-14.34
-29.97
-33.5
-22.88
-5.03
7.87
5.65
-13.3
-40.21
-60.12
-60.17
-37.13
0.34
35.82
53.89
48.09
24.09
-3.93
-20.99
-19.18
-1.31
21.59
37.01
37.93
26.46
11.6
3.26
5.95
16
24.08
21.5
6.24
-15.25
-31.52
-33.43
-20.05
-0.04
13.06
8.8
-13.85
-45.08
-69.26
-73.37
-54.12
-20.03
13.01
30.14
25.34
4.41
-18.43
-28.4
-18.1
8.72
39.44
59.87
61.79
47
25.4
8.47
2.67
5.73
9.08
3.88
-12.7
-34.75
-50.51
-49.53
-29.4
1.76
29.04
38.86
26.6
-0.55
-27.11
-37.81
-25.59
4.41
37.91
59.28
59.64
41.23
15.06
-5.64
-13.05
-8.42
-0.29
1.73
-6.54
-21.07
-32.14
-31.1
-16.2
5.16
20.21
18.46
-1.88
-31.84
-56.12
-61.23
-43.15
-9.75
23.15
40.13
34.41
11.24
-14.81
-28.23
-20.66
4.4
33.74
52.08
50.37
30.88
5.43
-11.28
-10.14
7.43
30.64
45.69
43.8
25.92
1.9
-15.97
-19.97
-11.52
0.06
3.8
-6.13
-26.48
-46.66
-55.03
-45.95
-23.31
1.5
16.16
14.5
-0.16
-17.11
-25.16
-19.06
-3.01
12.08
15.32
2.48
-20.93
-42.8
-51.46
-42.54
-21.61
-0.92
7.86
0.52
-17.29
-33.19
-35.78
-21.24
3.97
26.59
34.32
22.87
-1.13
-23.81
-31.84
-20.21
4.99
29.81
40.57
31.64
8.74
-13.95
-22.16
-9.3
19.17
48.64
63.56
55.88
29.84
-0.32
-17.99
-13.39
11.27
42.95
65.04
66.42
47.26
18.84
-3.24
-7.42
7.11
30.37
47.58
47.46
28.73
0.54
-22.86
-30.45
-20.37
-0.95
14.74
16.47
2.7
-18.69
-35.91
-40.07
-30.92
-16.5
-7.95
-12.42
-28.41
-46.78
-56.41
-51.31
-34.21
-15.32
-5.81
-11.08
-27.35
-43.66
-48.71
-37.33
-14.21
8.97
20.19
14.18
-4.31
-23.2
-30.18
-20.15
1.96
23.44
31.64
21.23
-2.25
-24.81
-32.18
-17.56
13.72
47.08
66.27
62.45
38.92
9.48
-8.99
-5.9
17.68
49.27
72.19
74.35
54.64
23.34
-4.02
-14.86
-6.63
12.66
29.42
32.56
19.76
-1.53
-18.99
-23
-12.19
5.47
17.97
16.47
0.6
-21.2
-37.14
-38.97
-27.25
-10.81
-1.37
-6.4
-24.31
-45.46
-57.9
-54.79
-38.39
-19.05
-8.68
-13.51
-30.14
-47.27
-52.58
-39.99
-13.65
13.98
29.3
25.11
4.9
-18.7
-31.03
-23.48
1.66
32.33
53.24
54.37
36.42
10.52
-7.98
-8.11
10.65
37.95
58.61
60.91
43.03
13.92
-11.85
-22.05
-13.5
6.81
26.13
33.53
26.11
10.06
-3.84
-7.25
0.45
11.48
15.09
4.49
-18.34
-42.99
-56.45
-50.65
-27.71
0.76
19.85
19.62
0.89
-25.07
-42.46
-39.8
-15.96
18.79
48.52
60.04
49.78
25.24
0.25
-12.52
-8.52
6.89
22.25
26.99
17.62
-0.38
-16.51
-21.9
-14.96
-2.51
4.68
-1.07
-19.12
-40.26
-52
-46.28
-24.63
1.76
18.45
15.75
-5.42
-33.61
-52.76
-50.77
-26.1
11.43
45.74
62.86
57.99
37.31
13.6
-1.11
-1.97
6.4
14.06
12.33
-0.46
-17.53
-28.02
-24.01
-6.04
16.46
30.2
25.92
4.2
-24.35
-44.29
-43.98
-21.77
12.54
43.12
56.41
48.14
25.16
0.79
-12.81
-11.56
-1.05
7.63
5.22
-9.63
-29.1
-40.77
-35.26
-12.06
19.04
43.06
48.01
31.39
1.65
-26.6
-40.39
-35.27
-17.15
1.83
10.58
5.72
-6.78
-15.46
-10.93
8.09
33.11
50.34
48.66
26.07
-8.72
-40.93
-57.45
-53.53
-34.95
-13.8
-1.49
-2.09
-10.44
-15.72
-8.64
12.33
39.35
59.05
60.25
40.42
7.6
-23.92
-41.22
-39.36
-23.76
-6.16
2.49
-1.53
-12.61
-19.54
-12.64
9.83
39.83
63.44
68.42
51.15
18.82
-14.3
-35
-37.99
-28.49
-18.31
-18.18
-31.13
-50.38
-63.51
-59.73
-36.58
-1.79
30.76
48.4
46.49
30.62
13.12
5.48
11.73
26.09
36.46
32.14
10.34
-21.29
-48.78
-59.3
-48.28
-22.03
6.12
23.27
24.06
13.22
2.44
2.74
17.58
40.36
57.83
57.84
36.57
1.3
-33.39
-53.41
-52.47
-35.35
-14.17
-1.09
-1.23
-10.02
-16.47
-10.34
10.99
40.37
64.26
70.16
53.71
21.42
-12.73
-34.91
-38.49
-27.35
-12.8
-6.25
-12.35
-26.18
-36.36
-32.32
-11.25
19.37
45.42
53.72
39.44
9.09
-22.87
-41.62
-39.61
-20.22
4.66
21.95
24.58
15.08
3.36
-0.31
8.05
23.1
33.41
28.52
5.81
-26.94
-55.1
-64.8
-50.59
-18.5
16.85
39.92
42.24
26.19
2.84
-15.01
-19.85
-13.4
-4.43
-2.67
-12.39
-29.04
-41.77
-39.92
-19.87
11.81
41.1
53.99
44.24
17.09
-13.34
-31.68
-29.41
-9.2
17.1
35.66
38.29
26.78
11.03
2.35
6.25
18.84
29.15
26.04
5.4
-26.46
-55.59
-67.71
-56.06
-25.3
10.79
36.72
43.39
32.36
13.98
0.4
-1.67
5.28
11.78
8.02
-9.56
-35.12
-56.19
-60.59
-43.46
-10.75
23.36
43.71
42.13
21.56
-5.84
-25.85
-29.78
-18.97
-3.15
6.11
2.53
-10.99
-24.24
-26.26
-12.32
12.53
35.74
44.4
32.44
4.64
-25.51
-42.68
-37.7
-12.45
21.22
47.89
56.78
47.08
27.48
10.06
3.11
6.21
11.27
8.55
-6.61
-30.01
-50.4
-56.26
-42.75
-15.46
11.99
25.37
17.77
-6.29
-32.98
-46.56
-37.84
-9.07
27.16
54.85
62.81
50.24
26.1
3.48
-7.73
-6
2.05
6.64
1.23
-13.06
-27.92
-33.37
-24.22
-4.14
15.56
22.4
10.32
-16.09
-43.24
-55.85
-45.57
-15.72
19.96
44.86
48.12
30.28
2.39
-20.16
-25.86
-12.97
10.43
31.6
40.46
35.06
22
11.35
10.18
17.95
26.84
27.12
13.83
-9.42
-31.78
-41.42
-32.69
-9.99
14.03
25.42
16.5
-9.42
-39.55
-58.04
-54.41
-29.1
6.71
37.03
49.47
41.57
21.41
2.22
-5.24
1.28
14.87
24.58
22.51
8.82
-8.34
-18.43
-15.38
-1.93
11.52
13.21
-2.58
-31.26
-59.56
-72.59
-62.23
-31.95
4.42
30.09
34.18
17.4
-8.6
-27.82
-28.53
-9.48
19.72
44.41
52.72
41.87
19.12
-3.02
-13.86
-10.52
1.16
10.91
10.79
0.39
-13.04
-19.64
-13.66
2.24
17.81
21.61
8.08
-18.42
-45.15
-57.91
-48.92
-21.5
11.31
33.65
35.21
16.95
-9.57
-28.35
-27.59
-5.9
26.87
55.28
66.59
57.27
34.42
10.96
-1.73
-0.11
10.14
18.48
16.32
2.47
-16.09
-28.9
-28.76
-16.6
-1.46
5.07
-3.81
-25.38
-48.23
-58.7
-49.01
-22.12
9.18
29.34
28.54
8.17
-19.77
-39.18
-38.29
-15.89
18.14
48.4
61.96
55.02
34.31
12.47
0.77
2.84
13.29
21.78
20.05
7.31
-9.22
-19.1
-15.79
-1.33
14.07
18.11
3.9
-25.18
-56.21
-73.33
-66.22
-36.14
4.3
37.48
49.91
39.07
14.23
-9.02
-17.47
-7.14
15.06
36.09
44.48
36.69
18.58
0.99
-7.01
-3.75
4.3
7.11
-2.34
-22.83
-44.97
-56.45
-49.74
-27.1
-0.42
15.31
10.54
-13.2
-43.53
-63.68
-61.63
-36.46
1
34.2
49.47
42.98
21.98
0.1
-10.28
-4.72
11.58
27.57
33.36
26.29
12.36
1.9
2.49
13.7
26.58
29.24
14.51
-14.98
-47.14
-66.49
-62.82
-36.86
-0.49
29.52
40.19
29.06
4.95
-17.05
-23.79
-11.02
14.79
40.62
54.46
51.95
38.27
23.92
17.62
20.6
25.73
22.52
4.36
-26.34
-58.12
-76.17
-70.49
-41.9
-2.35
30.95
44.28
34.39
9.83
-13.99
-23.26
-13.03
10.58
34.5
46.44
41.67
25.22
7.89
-0.86
1.05
7.09
6.73
-7.4
-33.91
-62.26
-78.17
-71.86
-44.2
-7.06
22.65
32.06
19.25
-5.9
-27.34
-31.7
-15.41
13.63
40.95
53.7
47.4
27.91
7.16
-4.09
-2.52
6.1
11.14
4.1
-15.43
-38.83
-53.06
-48.63
-25.55
5.63
29.34
33.57
16.54
-12.22
-37.15
-45.07
-32.17
-5.65
20.81
34.81
32.03
18.08
4.45
1.06
10.03
24.22
31.88
24.16
1.22
-26.95
-45.71
-43.93
-20.35
15.15
46.66
60.62
52.61
29.08
3.14
-12.91
-14.11
-4.93
4.39
4.46
-7.07
-23.79
-34.49
-30.4
-11.25
13.53
29.75
26.7
3.65
-29.13
-55.55
-62.33
-45.96
-14.48
17.24
35.54
35.12
21.05
4.99
-2.28
2.77
14.58
22.51
17.84
-0.11
-22.9
-37.53
-34.13
-12.03
18.97
43.64
49.48
33.35
3.15
-26.6
-42.43
-38.74
-20.35
1.06
13.74
12.68
2.08
-7.68
-7.17
5.79
24.14
35.56
30.17
6.97
-24.63
-49.72
-55.86
-39.96
-10.12
19.06
34.45
31.32
15.39
-1.06
-6.93
1.1
16.61
27.49
23.43
2.56
-26.61
-49.84
-54.81
-38.13
-7.53
22.66
39.35
37.72
23.19
7.76
2.07
9.18
22.6
30.5
23.08
-1
-32.89
-58.07
-63.79
-46.31
-13.1
21.15
42.56
45.3
34.03
20.33
14.81
20.67
31.58
35.94
24.48
-3.5
-38.52
-65.71
-72.38
-55.15
-21.79
12.85
34.73
37.9
26.83
12.93
6.81
11.97
22.64
27.86
18.8
-5.12
-34.73
-55.83
-56.93
-35.96
-2.06
29.05
43.29
35.52
11.9
-13.84
-28.28
-25.47
-9.73
7.68
15.67
10.09
-3.91
-15.49
-15.4
-2.12
16.49
27.71
21.76
-2
-33.77
-58.09
-61.93
-41.68
-5.25
32.05
55.38
57.87
43.32
22.99
8.46
5.1
9.36
12.05
4.93
-13.52
-36.25
-51.53
-50.02
-30.65
-2.29
20.7
26.26
11.52
-15.31
-38.86
-44.86
-27.72
6.42
42.91
66.42
68.66
52.2
27.81
7.82
-0.86
-0.02
2.28
-2.28
-16.42
-35
-48.02
-47.09
-31.05
-7.67
10.45
13.13
-1.1
-23.65
-40.39
-39.89
-20.06
10.22
35.79
43.82
30.85
4.92
-18.98
-27.21
-14.96
11.2
37.12
49.03
41.17
18.99
-4.03
-13.86
-3.95
21.18
48.39
63.32
58.38
36.68
10.12
-7.75
-9.01
4.04
20.78
28.75
20.79
-0.74
-25.55
-41.38
-41.14
-26.88
-8.38
2.79
0.1
-14.34
-31.53
-41.59
-39.8
-29.61
-20.1
-19.9
-31.5
-49.2
-62.4
-62
-46.14
-21.78
-1.12
5.39
-4.84
-24.65
-40.89
-41.78
-23.48
7.46
37.53
53.68
50.41
32.75
13.34
5.11
14.18
36.15
58.77
68.93
60.01
35.93
9.01
-6.67
-3.19
16.79
41.56
56.96
54.47
35.64
10.77
-7.74
-12.65
-6.14
2.17
1.82
-11.66
-33.42
-51.89
-55.85
-41.38
-15.06
9.38
18.56
7.29
-18.3
-43.66
-53.72
-41.03
-9.79
26.26
51.44
56.18
41.61
17.88
-2.27
-10.62
-7.84
-1.71
-1.49
-11.4
-27.35
-39.27
-37.63
-19.95
6.65
28.66
33.95
18.94
-8.87
-34.26
-42.75
-28.22
3.42
37.4
57.97
56.52
35.79
7.68
-13.43
-18.54
-8.28
8.31
19.78
19.33
8.66
-3.69
-8.47
-2.11
10.22
17.59
10.28
-13.6
-45.77
-71.35
-77.1
-58.77
-24.15
10.73
29.87
25.77
3.22
-23.38
-37.89
-31.02
-4.87
28.37
53.56
60.53
49.11
28.14
9.6
1.71
4.3
10.07
9.9
-0.82
-18.65
-33.97
-37.2
-25.16
-3.85
14.26
17.64
2.68
-23.65
-47.03
-53.89
-38.8
-8.04
23.74
41.41
37.29
15.44
-10.83
-26.05
-20.91
2.99
34.11
57.44
62.44
48.44
24.4
3.32
-5.07
0.46
12.49
20.36
16.76
2.32
-14.95
-25.09
-22.57
-10.24
2.25
4.34
-8.5
-31.28
-51.79
-57.66
-43.85
-16.15
11.27
23.99
15.2
-10.12
-37.52
-51.02
-41.44
-11.66
25.07
52.23
58.63
44.26
19.63
-0.13
-3.89
9.85
32.48
50.78
54.69
42.76
22.4
4.55
-3.12
-1
3.16
-0.21
-15.92
-40.12
-61.78
-69.2
-57.15
-30.71
-3.24
10.95
4.75
-17.51
-42.04
-53.23
-42.33
-12.36
23.14
47.71
50.54
32.22
3.76
-19.42
-25.76
-13.44
9.69
31.02
40.62
36.46
24.79
15.14
14.11
21.02
28.33
27.04
12.86
-10.26
-31.68
-40.2
-30.9
-8.79
13.43
22.23
10.96
-15.9
-44.71
-59.74
-51.93
-23.59
12.28
39.16
45.59
31.13
6.32
-13.62
-16.79
-1.22
24.49
46.46
53.19
41.83
19.41
-1.71
-10.99
-5.54
8.59
20.57
21.58
10.07
-7.46
-20.98
-23.26
-14.73
-3.33
0.68
-8.8
-29.28
-50.7
-61.05
-53.97
-32.69
-8.88
4.05
-1.26
-21.62
-44.61
-55.86
-46.84
-20.09
11.94
34
36.29
20.01
-3.36
-18.41
-14.53
8.51
40.15
65
71.04
56.09
28.96
4.34
-4.98
4.61
25.92
45.32
50.5
37.49
12.66
-11.06
-21.96
-15.91
1.11
17.06
21.07
9.8
-10.59
-28.7
-34.67
-26.51
-11.07
0.28
-1.18
-16.01
-36.32
-50.47
-50.66
-37.37
-19.66
-9.28
-13.49
-30.39
-49.52
-58.07
-48.2
-22.13
8.83
30.41
33.31
18.52
-3.24
-17.45
-14.25
6.38
34.09
54.23
56.09
38.89
12.73
-7.23
-8.85
9.84
39.72
65.39
73.66
60.61
33.44
6.48
-7.08
-2.05
16.03
34.52
41.19
31.09
9.13
-13.4
-25.53
-23.24
-11.66
-1.41
-2.06
-15.76
-35.88
-50.87
-51.9
-38.35
-19
-6.89
-11.34
-32.13
-58.72
-76.05
-72.84
-48.09
-12.01
19.53
33.48
26.65
7.08
-10.6
-13.32
3.29
32.75
61.53
76.54
72.17
52.85
29.64
13.42
8.7
11.3
12.03
3.04
-16.57
-39.3
-53.2
-49.03
-26.35
5.23
30.69
37.64
23.27
-3.84
-28.26
-36
-22.01
7.15
37.21
54.17
51.74
34.28
13.24
-0.11
-1.46
4.29
6.79
-2.72
-25.1
-51.74
-69.05
-66.17
-41.74
-5.47
26.61
40.7
32.47
8.93
-15.93
-29.33
-26.41
-12.36
1.74
6
-2.24
-16.61
-25.76
-20.22
1.51
31.21
54.86
60.19
43.44
11.73
-20.59
-39.77
-39.78
-25.31
-8.21
-0.06
-5.24
-18.51
-28.42
-24.75
-5.02
23.23
46.43
52.43
37.34
7.89
-22.15
-39.34
-37.58
-20.98
-0.98
10.75
8.96
-2.26
-12.35
-11.43
3.43
25.42
41.78
41.22
20.72
-11.89
-41.89
-55.13
-45.52
-18.02
14.28
37.49
44.34
37.28
26.28
21.63
27.65
39.28
45.65
36.89
10.81
-24.49
-54.6
-66.04
-53.66
-23.43
10.5
33.56
38.13
26.92
10.79
1.26
3.9
14.61
22.7
17.64
-3.88
-34.81
-61.31
-69.82
-54.94
-22.38
13.4
37.21
40.83
26.85
6.54
-7.54
-8.62
0.19
8.88
7.02
-9.09
-33.3
-52.85
-55.53
-37.34
-5.09
26.29
42.17
35.73
11.52
-17.21
-36.13
-37.02
-22.2
-1.71
12.66
14.6
6.82
-1.29
-0.02
13.87
34.7
50.26
49.47
29.16
-3.12
-32.3
-43.88
-31.6
-1.5
31.56
51.47
49.41
28.11
-0.34
-21.44
-26.34
-15.76
0.86
12.02
10.9
-0.66
-13.7
-18.33
-10.1
6.28
19.84
19.67
2.12
-26.3
-51.7
-60.52
-47.27
-17.79
13.11
30.04
25.15
2.49
-24.16
-38.87
-32.04
-5.81
27.73
52.97
59.35
46.72
24.52
5.84
-0.3
6.37
17.52
22.44
14.8
-3.07
-21.39
-29.33
-21.78
-3.42
13.91
17.82
3.03
-25.04
-52.7
-65.17
-54.87
-25.37
9.89
35.09
40.09
25.46
1.5
-18.15
-23.8
-15.09
0.09
10.81
10.11
-0.65
-12.7
-15.73
-4.79
16.16
35.34
40.35
25.36
-4.82
-36.5
-54.24
-48.75
-22.24
13.28
42.06
53
45.09
26.82
10.47
4.65
9.71
17.76
18.74
6.95
-14.68
-35.47
-43.5
-32.48
-6.62
21.39
36.79
31.04
6.72
-23.7
-44.21
-44.07
-22.9
8.85
36.21
47.62
40.9
23.6
7.5
1.65
6.52
14.67
15.76
3.7
-18.83
-41.26
-51.28
-42.49
-18.45
8.15
22.75
16.94
-6.74
-35.65
-54.03
-51.01
-26.73
8.32
38.87
52.98
48.11
31.33
14.45
6.64
9.56
16.57
18.02
7.75
-12.37
-32.78
-42.04
-33.75
-11.3
13.39
26.23
18.92
-6.01
-36.2
-55.53
-53.05
-28.28
8.06
40.02
54.56
48.03
27.38
5.37
-6.33
-3.83
7.98
18.99
20.6
11.1
-3.38
-13.17
-11.69
0.07
13.26
16.77
4.28
-21.15
-47.6
-60.77
-51.73
-22.66
13.86
41.32
47.77
32.3
5.09
-17.81
-23.46
-8.26
20.05
47.19
60.11
53.76
33.36
10.3
-4.41
-6.73
-1.06
3.31
-1.31
-15.56
-32.49
-41.84
-37.16
-20.2
-1.06
7.81
-0.94
-24.68
-51.22
-65.41
-57.24
-27.96
10.2
40.32
49.52
35.79
8.59
-16.03
-24.39
-11.8
15.09
42.56
57.51
54.33
37.45
17.58
5.26
4.33
10.28
13.87
7.48
-9.29
-29.06
-40.91
-37.79
-21.14
-1.16
9.03
1.21
-22.79
-51.02
-67.85
-62.22
-34.27
4.47
37.01
49.66
39.26
14.35
-9.43
-18.21
-6.74
18.87
45.17
58.94
54.34
35.72
14
0.18
-1.44
4.69
9.03
3.32
-13.43
-33.98
-46.94
-44.4
-27.03
-4.71
8.99
4.81
-16.53
-43.9
-61.68
-58.16
-32.35
5.16
37.72
51.29
41.78
16.79
-8.83
-21.2
-14.6
5.97
28.29
40.33
37.03
22.8
7.93
1.8
6.62
15.87
18.74
7.17
-18.2
-47.34
-65.7
-62.47
-36.93
0.48
33.16
47.11
37.91
12.82
-13.77
-28
-23.77
-5.58
15.15
26.81
24.43
12.21
0.29
-2.07
7.39
22.19
30.88
24.42
2.2
-26.71
-47.92
-49.82
-30.03
2.5
32.41
45.86
37.87
14.6
-10.64
-25.14
-23.82
-11.41
1.08
3.63
-6.53
-22.92
-33.77
-29.27
-7.7
22.47
47.08
53.87
39.23
10.35
-18.76
-35.07
-33.57
-19.38
-4.25
0.93
-7.25
-22.87
-34.3
-31.51
-12.21
16.11
40.54
49.9
41.14
21.28
3.25
-1.39
10.64
32.2
49.46
49.71
28.63
-6.96
-42.51
-64.15
-65.82
-52.54
-36.54
-29.38
-35.03
-47.64
-55.6
-48.73
-24.92
8.49
38.75
54.89
53.79
41.61
30.1
29.55
43.01
63.68
78.73
76.28
52.25
13.59
-25.01
-48.68
-50.58
-35.26
-16.04
-6.93
-14.49
-34.47
-54.46
-62.18
-52.41
-30.33
-7.72
4.5
2.89
-6.41
-12.13
-4.46
18.48
49.2
74.75
83.74
72.6
47.74
22.17
8.25
11.19
25.57
38.46
36.86
15.15
-21.07
-57.8
-80.27
-81.3
-64.63
-42.37
-27.36
-25.55
-33.11
-39.3
-33.9
-13.54
15.62
41.47
52.96
46.44
28.22
10.72
5.7
17.29
39.27
58.32
61.35
42.95
8.72
-27.32
-50.91
-54.75
-42.42
-25.53
-16.07
-19.21
-30.16
-37.6
-30.7
-6.38
28.34
59.76
74.73
67.81
44.01
15.9
-3.81
-8.99
-3.29
2.59
-1.83
-20.32
-46.84
-68.83
-74.01
-57.69
-25.75
8.45
31.08
35.33
24.48
9.72
2.71
8.83
23.76
35.97
34.04
13.58
-19.3
-51.06
-67.77
-62.65
-39.79
-11.23
9.79
16.37
11.19
4.34
6.37
21.59
44.91
63.98
66.59
47.49
12.18
-25.72
-51.5
-56.91
-44.46
-24.94
-11.01
-9.49
-17.67
-25.34
-21.54
-1.72
28.89
57.19
69.7
59.83
31.83
-1.49
-25.83
-32.83
-24.51
-10.88
-3.74
-9.18
-23.77
-36.67
-36.46
-18.5
11.8
40.81
54.48
45.8
18.74
-13.83
-37.36
-42.99
-32.2
-14.68
-2.33
-1.93
-11.15
-20.31
-18.64
-1.58
26
51.34
61.24
49.35
20
-13.68
-37.08
-41.45
-28.55
-8.59
6.04
8.12
-0.25
-9.45
-8.5
7.52
34.22
59.2
69.14
57.06
26.49
-10.05
-37.94
-47.68
-39.9
-23.81
-11.35
-9.88
-17.81
-25.99
-23.51
-5.2
24.89
54.47
69.84
63.29
37.47
4.25
-22.09
-32.07
-26.01
-12.87
-4.29
-7.37
-20.19
-33.15
-34.86
-19.66
8.62
37.71
53.6
48.12
23.43
-8.93
-34.68
-43.97
-36.55
-21
-8.98
-8.24
-17.86
-29.08
-30.83
-17.21
8.5
34.77
48.22
41.22
16.52
-13.9
-35.48
-38.54
-23.51
-0.2
18.28
22.88
13.68
-0.63
-8.48
-2.98
13.58
30.66
35.71
21.84
-7.46
-39.4
-58.72
-55.74
-31.77
1.38
28.21
37.63
28.73
10.57
-3.87
-5.64
4.81
18.5
23.6
13.17
-10.01
-34.5
-46.55
-37.95
-10.99
22.04
45.71
49.56
33.6
8.05
-12.96
-19.43
-11.23
2.61
9.61
1.8
-19.06
-42.27
-54.15
-46.11
-19.63
13.79
39.28
46.5
35.04
14.39
-2.06
-4.74
6.3
22.01
29.74
21.08
-2.63
-30.78
-49.11
-47.85
-27.09
2.79
27.34
35.91
27.33
10.18
-2.97
-3.16
9.19
24.81
31.14
20.2
-6.06
-36.3
-55.67
-54.01
-31.4
1.56
29.81
41.94
36.01
20.02
6.39
4.41
14.4
27.8
32.62
21.03
-5.2
-34.92
-53.34
-50.18
-25.4
10.15
40.53
53.09
44.78
23.24
1.58
-9.29
-6.95
1.76
5.7
-3.3
-24.6
-48.51
-61.52
-54.1
-26.63
10.01
39.99
50.91
40.14
15.85
-8.25
-20.66
-18.27
-7.59
0.28
-3.33
-18.84
-37.81
-47.83
-40.17
-15.57
15.4
37.66
39.99
21.34
-8.55
-34.5
-44.08
-34.02
-11.71
9.94
19.97
15.53
3.19
-5.84
-3.05
11.7
29.73
38.79
30.72
6.96
-21.45
-39.47
-36.49
-12.08
23.06
52.84
64.1
53.27
27.71
0.91
-14.96
-15.64
-6.28
2.52
1.63
-10.75
-27.71
-37.9
-32.92
-12.84
12.69
29.56
27.4
5.72
-25.15
-49.41
-54.04
-35.9
-3.37
28.51
45.94
43.66
26.92
7.63
-3.18
-1.44
8
15.17
11.84
-3.04
-22.1
-34.02
-30.46
-11.67
12.91
29.84
29.15
10.33
-17.13
-38.43
-41.62
-23.81
7.24
37.33
53.55
50.86
34.45
15.74
5.41
6.88
14.39
17.27
6.95
-16.96
-45.37
-64.35
-63.01
-39.73
-3.82
29.07
45.26
39.9
19.1
-4.25
-17.9
-17.06
-6.6
2.97
2.26
-10.77
-29.22
-41.17
-37.25
-16.42
12.32
34.53
38.34
21.06
-8.98
-36.87
-48.76
-39.24
-13.87
14.53
32.9
35.25
25.16
12.76
7.55
12.47
21.92
25.49
15.17
-8.92
-37.19
-55.45
-52.77
-28.07
8.27
39.77
52.12
40.87
13.56
-14.29
-27.77
-20.1
4.09
31.78
49.24
49.26
34.73
15.65
2.74
0.82
6.07
9.48
2.92
-14.76
-36.44
-50.51
-48.48
-30.44
-5.99
10.7
9.19
-11.16
-40.03
-61.51
-62.68
-40.66
-4.71
29.02
45.71
39.78
17.54
-6.48
-17.5
-8.43
16.83
45.65
64.24
64.9
49.86
28.88
12.85
7.26
8.96
9.32
0.28
-19.45
-42.76
-57.82
-55.67
-36.17
-9
11.14
13
-4.68
-31.86
-52.47
-53.23
-30.99
4.91
37.9
52.71
43.63
17.33
-10.98
-25.72
-19.14
5.11
34.31
54.25
56.7
43.44
24.15
9.95
6.63
11.22
14.81
8.74
-9.01
-31.9
-48.25
-48.88
-33.09
-9.91
6.59
5.66
-13.72
-41.61
-62.35
-63.31
-41.94
-7.66
23.44
37.14
28.75
5.45
-17.98
-27.03
-15.33
12.46
43.34
63.43
65.21
51.07
30.94
15.65
10.51
12.21
11.86
1.39
-20.36
-45.65
-61.71
-58.39
-34.81
-0.85
27.48
36.83
23.89
-2.72
-26.88
-34.05
-18.82
12
43.38
60.33
55.7
33.72
6.67
-12.05
-15.51
-6.42
5.33
9.31
1.23
-14.38
-26.92
-27
-12.5
9.06
24.46
22.63
1.34
-30.72
-58.08
-66.65
-51.2
-18.35
17.15
40.1
42.78
28.29
7.94
-5.99
-7.15
1.55
10.57
10.5
-1.77
-20.55
-34.75
-34.97
-19.5
3.66
21.19
21.98
3.87
-24.55
-48.09
-53.08
-34.84
-0.14
36.02
58.44
59.31
41.79
17.3
-1.3
-6.63
-0.58
8.12
9.89
0.6
-15.47
-28.25
-28.43
-13.63
9.22
27.44
29.91
14.03
-12.3
-34.34
-38.8
-21.06
11.8
44.58
62.14
57.11
33.55
3.93
-17.84
-24.02
-16.67
-5.25
-0.36
-6.88
-20.82
-31.82
-30.15
-13.1
12.29
32.56
35.71
18.15
-12.62
-41.72
-54.69
-45.07
-17.87
13.63
35.07
38.82
27.48
11.52
2.19
4.63
14.92
22.78
18.62
0.02
-25.9
-46
-48.69
-30.57
0.74
30.51
44.66
37.2
13.33
-13.56
-29.19
-26.02
-6.86
17.21
33.58
35.33
24.91
11.95
6.46
12.34
24.29
31
22.44
-3.49
-38.46
-67.5
-76.87
-61.52
-28.2
8.07
31.75
34.8
20.27
-0.27
-14.02
-14.09
-3.07
9.31
12.93
3.7
-13.48
-27.69
-28.85
-14.03
9.82
29.52
32.95
16.24
-13.6
-41.9
-54
-43
-13.3
21.79
47.39
54.79
45.48
29.07
16.69
14.2
18.69
21.15
12.9
-8.12
-34.76
-54
-54.45
-33.22
1.37
33.57
48.41
39.7
13.34
-16.07
-33.2
-30.1
-10.01
15.12
31.98
33.28
21.48
6.43
-1.39
2.49
13.5
21.1
15.58
-5.33
-33.99
-56.49
-60.14
-40.88
-6
29.21
49.6
47.98
28.42
3.49
-13.63
-16.33
-8.14
0.4
-1.28
-16.92
-40.34
-58.98
-60.84
-41.84
-8.55
24.84
44.13
42.64
24.4
1.39
-13.8
-14.83
-4.92
6.05
8.13
-2.32
-19.88
-33.16
-31.55
-11.92
18.68
46.2
57.01
45.41
16.93
-14.44
-33.78
-32.97
-14.85
9.04
25.61
27.62
17.56
5.23
0.81
8.1
21.66
30.14
23.65
0.33
-31.37
-56.63
-62.28
-44.16
-9.82
25.15
45.26
43.12
22.82
-3.05
-20.81
-23.07
-12.37
1.42
7.76
1.9
-12.1
-24.13
-24.68
-11.05
10.18
26.56
26.96
8.46
-21.24
-47.31
-55.58
-40.23
-7.1
29.25
53.29
56.43
41.01
17.91
-0.26
-6.36
-2.33
3.13
0.96
-12.05
-30.34
-42.57
-38.66
-16.39
16.06
43.85
53.41
40.15
11.2
-18.1
-32.51
-24.88
0.22
29.36
47.96
48
31.85
9.85
-6.31
-10.55
-5.65
-0.66
-4.7
-20.52
-42.07
-57.47
-56.27
-36.07
-4.85
22.7
33.32
22.38
-3.34
-29.28
-41
-31.8
-6.13
23.35
42.92
45.13
32.4
14.67
2.91
2.44
9.92
15.99
11.71
-5.09
-27.7
-43.89
-43.52
-24.75
3.73
27.12
32.74
17.13
-11.48
-37.38
-45.71
-30.61
1.55
35.53
55.32
52.58
30.88
3.25
-15.22
-15.56
0.45
21.95
35.81
34.21
18.8
-1.05
-14.57
-16.21
-9.13
-2.57
-5.61
-20.87
-42.1
-57.47
-56.97
-38.81
-11.32
11.25
16.99
3.39
-20.88
-40.66
-43.02
-24.47
6.66
34.98
46.63
36.79
12.67
-10.78
-18.99
-5.88
22.97
53.35
70.3
66.15
44.4
17.43
-0.73
-2.1
11.04
28.08
36.85
30.76
12.59
-7.72
-19.46
-17.86
-7.27
1.9
-0.28
-16.45
-39.63
-56.93
-57.53
-39.51
-11.77
10.51
14.72
-1.88
-30.24
-54.12
-59.19
-40.64
-6.07
28.85
48.69
46.26
26.11
1.37
-13.52
-10.72
7.36
29.98
44.69
44.4
31.05
13.59
1.77
0.1
4.89
7.28
-0.64
-20.07
-43.85
-60.11
-59.38
-40.65
-12.75
10.19
16.58
4.23
-18.26
-35.99
-36.49
-16.69
14.82
42.5
52.45
40.03
12.57
-14.82
-27.35
-18.47
6.73
34.85
51.67
49.84
32.63
11.26
-1.95
-0.83
11.33
24.23
27.43
17.01
-1.88
-18.21
-22.45
-12.64
3.52
13.32
6.68
-17.27
-48.74
-72.1
-74.3
-52.31
-14.94
21.49
41.75
39.46
19.82
-4.12
-19.06
-18.52
-5.94
8.55
14.77
8.7
-5.01
-16.29
-16.23
-3.08
16
28.84
25.45
4.5
-25.03
-48
-51.38
-31.45
3.71
38.24
57.04
53.45
32.35
6.62
-10.28
-11.78
-1.24
11.08
14.8
6.02
-10.05
-22.49
-21.82
-6.38
15.8
31.23
28.99
7.54
-23.78
-49.17
-55.12
-37.53
-4.25
29.37
48.61
47.01
29.15
7.11
-6.77
-6.89
2.9
12.5
12.28
-0.53
-19.64
-33.4
-32.32
-15.16
9.19
26.48
25.26
3.71
-28.72
-55.98
-63.95
-47.97
-15.3
19.03
40.23
41.59
27.26
9
-1.29
1.52
13.15
23.25
22.47
8.58
-11.62
-26.42
-26.61
-11.22
10.78
25.69
22.82
1
-30.14
-54.81
-59.36
-39.66
-3.15
34.92
59.54
63.48
50.15
30.44
15.7
11.24
13.56
13.92
4.68
-15.03
-37.64
-51.36
-47.28
-25.32
4.7
27.92
32.61
16.81
-10.3
-33.13
-38.25
-21.52
9.59
40.34
56.79
53.16
34.38
12.27
-1.61
-2.85
3.7
7.78
0.59
-18.99
-42.89
-58.22
-54.97
-32.36
-0.28
25.64
32.6
17.54
-11.09
-38.29
-50.5
-42.85
-21.33
1.53
14.08
12.26
1.61
-6.75
-3.51
12.54
33.31
45.97
40.94
18.1
-12.33
-34.93
-37.55
-17.9
14.77
44.95
59.07
52.57
31.7
9.2
-3.44
-2.53
6.16
11.7
5.23
-13.98
-37.36
-51.72
-47.08
-22.8
11.11
39.06
48.28
35.52
8.59
-18.42
-32.76
-29.86
-15.18
-0.01
5.39
-1.74
-15.21
-23.9
-19.14
-0.71
22.21
35.98
30.57
5.9
-27.48
-53.71
-60.09
-43.75
-13.28
16.55
32.78
31.08
17.4
3.55
-0.4
7.72
21.08
28.51
21.8
1.43
-22.85
-37.31
-32.25
-7.74
25.43
51.51
58.07
42.53
13.21
-15.57
-31.37
-30.17
-17.82
-5.64
-3.4
-13.06
-27.64
-35.53
-27.97
-4.9
24.01
44.39
45.28
25.42
-5.78
-33.51
-45.44
-38.19
-18.72
0.55
9
4.1
-7.53
-14.52
-8.35
10.86
33.79
46.96
40.77
15.57
-17.87
-44.03
-50.91
-36.46
-9.51
15.74
27.74
23.84
11.06
0.98
2.08
14.14
28.32
32.68
19.97
-7.16
-36.57
-53.01
-46.71
-19.01
17.51
45.66
52.59
36.44
6.97
-19.94
-30.73
-21.22
1.72
24.67
35.22
28.78
10.64
-7.83
-16.01
-10.41
3.61
15.48
16.3
4.46
-13.32
-26.47
-27.4
-16.52
-2.56
3.02
-6.92
-30.22
-56.06
-70.81
-66.04
-43.54
-14.62
6.19
9.32
-4.36
-24.2
-36.2
-31.27
-10.42
15.55
32.76
32.35
15.58
-6.44
-19.44
-14.01
8.67
37.43
57.37
58.31
40.66
15.12
-3.18
-3.6
14.15
39.51
57.4
56.75
36.84
7.94
-14.74
-19.41
-4.66
19.89
39.25
41.54
24.91
-1.59
-22.98
-27.19
-11.73
14.69
37.32
43.8
30.95
6.46
-16.05
-24.65
-16.08
2.62
18.77
21.4
7.93
-14.52
-33.03
-36.61
-22.47
2.14
24.06
31.87
22.18
1.47
-18.05
-25.52
-17.72
-0.91
13.38
15.17
2.12
-19.19
-37.14
-41.77
-30.66
-10.18
8.26
14.9
7.18
-9.06
-23.49
-27.5
-19.14
-4.33
7.24
7.96
-2.96
-19.18
-31.35
-32.65
-23.19
-9.68
-1.31
-3.82
-15.58
-28.32
-32.39
-23.04
-3.88
14.52
20.92
10.22
-12.94
-36.05
-45.72
-34.91
-7.2
24.87
46.64
48.9
32.62
8.08
-11.11
-15.45
-4.34
14.2
28.86
31.88
23.64
12.08
7.06
13.58
27.92
39.23
36.26
14.47
-20.2
-53.48
-70.02
-61.4
-31
7.69
37.98
48.52
38.82
18.5
0.99
-4.33
2.78
13.86
17.95
8.79
-10.8
-30.2
-37.45
-26.52
-1.65
24.46
37.54
29.58
3.6
-27.82
-48.93
-49.16
-28.43
3.05
30.74
43.74
40.31
27.79
16.94
14.94
20.73
25.95
21.02
1.76
-26.83
-52.42
-62.3
-50.52
-22.08
9.34
28.41
26.48
6.15
-20.1
-36.73
-33.54
-10.94
20.49
46.21
55.74
48.07
31.17
16.4
11.45
15.56
20.66
17.05
0.18
-25.48
-48.16
-55.63
-42.5
-14.15
15.42
31.02
24.65
-0.05
-29.69
-48.43
-46.5
-25.12
4.46
27.9
35.47
27.26
12.02
1.18
1.54
11.04
20.27
18.67
1.72
-25.36
-49.8
-58.38
-45.19
-15.46
16.62
35.61
32.88
11.03
-17.83
-38.99
-42.96
-30.16
-9.75
6.33
10.36
3.27
-6.65
-9.52
-0.56
16.42
30.91
32.36
17.2
-8.17
-30.23
-36.02
-20.73
9.04
38.44
52.51
44.17
18.07
-11.97
-30.41
-28.13
-6.96
21.69
43.51
48.97
38.29
20.38
6.86
4.98
13.2
22.66
23.28
10.62
-10.75
-29.49
-34.6
-22.2
1.3
22.28
27.66
12.19
-18.06
-48.55
-63.9
-55.87
-27.77
7.45
34.23
42.61
33.05
15.12
1.12
-1.29
6.55
15.96
17.23
6.2
-12.57
-28.36
-31.26
-18.46
3.09
20.27
21.35
3.01
-27.02
-53.47
-61.78
-45.92
-11.94
24.96
48.48
49.62
31.16
5.55
-12.28
-13.01
2.27
23.4
37.6
36.72
21.69
1.3
-13.7
-17.09
-10.93
-3.77
-4.77
-17.38
-36.52
-51.25
-51.79
-35.83
-10.82
9.86
14.77
1.19
-22.83
-42.73
-45.76
-28.06
2.87
32.22
45.97
38.38
15.09
-10.12
-22.72
-15.22
9.09
38.21
58.24
60.95
47.89
28.64
14.58
12
18.49
25.07
22.47
7.43
-14.69
-32.73
-36.86
-24.7
-3.69
12.85
13.25
-5.44
-35.15
-60.65
-67.72
-50.93
-16.67
20.02
43.63
46.04
30.32
7.85
-8.59
-11.9
-4.34
5.12
6.96
-2.6
-18.76
-31.01
-29.7
-12.44
13.59
35.02
39.8
24.21
-4.61
-32.26
-44.89
-36.59
-12.5
14.48
31.27
31.71
19.67
6.01
1.44
9.71
25.13
36.01
31.9
10.3
-20.97
-47.64
-56.56
-42.91
-13.06
18.93
39.08
40.87
28.11
12.06
3.88
7.9
18.82
25.38
17.54
-6.9
-39.9
-67.36
-76.36
-62.46
-32.1
0.93
23.18
28.66
21.38
12.28
11.63
22.71
39.28
49.42
42.93
17.82
-17.48
-48.47
-61.81
-52.7
-27.16
1.58
20.62
24.51
17.6
10.77
13.96
29.89
51.61
66.29
62.69
37.8
-0.78
-38.67
-62.23
-65.59
-53.24
-36.68
-27.16
-28.96
-37.22
-41.23
-31.57
-6.37
26.68
54.24
64.57
54.18
29.98
5.2
-8.11
-5.62
6.77
16.84
13.57
-6.22
-35.49
-60.73
-69.68
-58.17
-32.32
-4.84
12.53
15.87
10.58
7.64
16.35
38.03
64.65
83.07
82.39
60.3
24.96
-9.24
-29.55
-31.37
-20.82
-10.57
-12.12
-28.92
-54.14
-74.42
-77.82
-60.61
-29.55
2.05
22.12
26.6
21.29
17.51
24.91
44.94
69.43
85.07
80.84
54.64
14.98
-23.24
-46.87
-50.97
-41.12
-29.38
-26.62
-35.97
-50.96
-59.52
-51.46
-24.96
11.5
43.53
58.58
52.94
33.6
13.87
5.41
11.31
24.36
31.85
23.44
-2.19
-35.92
-63.22
-72.19
-60.05
-34.34
-8.27
6.85
7.75
0.3
-4.45
2.37
22.05
46.72
63.48
61.77
39.5
5.05
-27.05
-43.6
-39.81
-21.77
-2.15
7.5
3.76
-6.89
-12.44
-3.17
21.49
51.9
73.3
74.18
52.92
18.86
-13.02
-30.59
-30.96
-21.33
-13.92
-18.18
-34.89
-55.59
-67.43
-60.97
-35.68
-0.84
29.15
42.42
35.73
15.84
-4.58
-14.35
-9.88
2.79
12.34
9.21
-8.03
-31.06
-46.54
-43.5
-20.33
13.81
43.88
57.2
50.28
30.35
10.67
2.19
7.21
18.35
23.43
13.31
-12.13
-43.47
-66.74
-71.16
-55.02
-26.49
1.08
16.55
16.9
8.33
2.05
7.32
25.68
49.06
64.4
60.99
36.99
1.39
-30.76
-46.33
-41.31
-22.75
-3.89
4.01
-1.54
-13.22
-18.79
-9.15
15.57
45.6
66.85
68.73
50.08
19.77
-8.24
-22.82
-21.37
-11.02
-4.07
-10.4
-31.49
-59.11
-79.8
-82.35
-64.05
-32.5
-1.09
18.49
22.76
17.99
15.59
24.88
46.52
71.28
85.21
77.69
48.17
7.3
-28.71
-46.86
-44.35
-29.44
-15.77
-13.92
-25.14
-41.28
-49.97
-42.72
-19.96
9.12
31.87
39.29
30.9
14.84
2.97
4.13
19.14
39.65
52.72
47.91
23.35
-12.35
-44.58
-60.34
-55.31
-36.19
-16.03
-6.36
-10.21
-20.58
-25.27
-14.74
11.13
42.53
65.02
67.85
50.18
21.45
-4.11
-15.76
-12.05
-1.17
4.56
-3.64
-25.55
-51.73
-68.83
-67.21
-46.24
-14.93
13.01
26.58
23.18
9.65
-2.09
-2.28
10.85
29.53
41.11
35.49
11.62
-21.12
-47.81
-55.85
-42.12
-14.57
12.83
28.27
28.77
21.22
17.4
25.97
46.43
69.02
80.11
70.33
40.25
0.47
-33.94
-51.36
-49.19
-34.61
-19.62
-13.95
-19.58
-29.95
-34.32
-24.64
-0.73
28.34
48.93
50.22
30.39
-1.8
-31.69
-46.41
-41.8
-24.41
-6.87
-0.01
-6.2
-17.99
-23.12
-12.37
13.91
45.43
67.43
68.97
49.19
17.78
-10.6
-24.7
-22.61
-12.27
-6.08
-13.07
-33.36
-57.74
-73.06
-69.8
-47.47
-15.21
13.4
27.74
25.83
15.08
7.39
11.96
29.45
50.91
63.01
55.67
28.45
-8.38
-39.33
-51.78
-43.02
-21.24
-0.11
9.43
5.51
-4.3
-8.1
2.24
25.72
52.32
68.39
64.37
40.22
5.55
-25.53
-41.78
-40.34
-27.68
-15.09
-11.9
-19.9
-32.22
-37.7
-27.71
-1.99
29.86
53.36
56.97
38.64
7.47
-21.58
-35.7
-31.38
-15.79
-1.73
0.55
-10.25
-25.84
-33.61
-24.86
-0.53
28.87
48.85
49.1
29.12
-1.65
-29.17
-42.33
-38.46
-24.07
-10.39
-6.58
-14.44
-27.24
-34.08
-26.64
-4.68
22.56
41.4
41.25
20.92
-10.05
-36.45
-45.26
-32.82
-6.51
19.95
34.47
33.44
23.12
15.06
18.06
32.23
48.64
54.71
42.11
12.28
-23.62
-50.57
-57.55
-43.3
-16.73
8.29
20.5
16.99
4.21
-6.49
-6.16
6.43
23.34
32.46
24.65
-0.2
-32.14
-56.28
-60.48
-42.27
-10.27
20.81
38.34
38.63
28.25
19.13
20.46
32.63
46.88
50.97
37.09
7.31
-26.81
-50.27
-52.7
-34.02
-4.27
21.88
32.95
26.41
9.13
-7.18
-13.46
-8.16
1.67
5.34
-4.7
-27.52
-53.08
-67.67
-61.2
-33.64
4.24
36.43
50.15
42.64
22.14
2.47
-5.32
0.66
12.67
18.98
11.74
-7.65
-28.96
-39.07
-29.77
-2.98
29.93
53.93
58.26
41.84
13.35
-13.7
-28.6
-28.52
-19.68
-12.6
-15.6
-29.34
-45.86
-53.39
-43.24
-15.7
18.96
45.8
53.28
39.67
14.2
-8.62
-17.22
-9.65
5.79
16.29
12.78
-4.07
-24.14
-33.78
-24.24
2.78
35.79
59.57
63.43
46.76
18.75
-7.19
-21.13
-21.59
-15.61
-13.62
-22.65
-41.61
-61.24
-69.36
-58.08
-28.79
7.25
34.77
42.38
28.66
2.99
-20.07
-28.51
-19.48
-0.36
16.49
21.44
13.7
1.6
-2.9
7.7
30.9
55
65.62
54.23
23.42
-14.08
-42.15
-49.76
-36.51
-12.03
9.89
19.06
14.04
2.1
-5.98
-3.1
9.88
24.09
28.23
15.44
-11.96
-42.66
-62.19
-60.29
-36.7
-1.82
28.98
43.41
38.68
22.46
7.56
3.92
12.33
24.14
27.27
14.21
-12.33
-40.23
-54.56
-46.18
-17.4
19.07
46.81
54.45
41.24
16.53
-6.15
-16.99
-14.72
-6.58
-2.85
-10.29
-27.58
-45.6
-52.86
-42.28
-15.95
14.82
35.44
35.8
15.9
-13.81
-38.22
-45.54
-33.68
-10.9
9.68
18.03
13.24
3.54
0.59
11.49
33.48
55.1
62.87
49.49
18.57
-16.94
-41.73
-46.23
-31.45
-7.79
11.35
16.93
8.94
-4.26
-11.61
-6.35
9.87
27.25
33.75
22.05
-5.68
-38.17
-60.87
-63.33
-45.01
-15.43
11.47
25.12
24.16
16.54
13.87
23.5
43.18
61.98
66.81
50.6
17.18
-20.25
-46.21
-51.27
-36.92
-14.12
3.49
7.33
-1.66
-14.3
-19.29
-10.52
9.28
29.29
37.01
25.21
-3.53
-37.62
-62.54
-68.02
-53.46
-27.9
-4.39
7.5
7.02
2.28
4.32
19.7
45.28
69.26
78.01
64.24
32.01
-5.01
-30.78
-35.42
-20.44
2.97
20.75
24.19
14.38
0.81
-5.34
1.37
17.14
30.85
30.92
12.33
-19.78
-52.22
-70.46
-66.16
-41.36
-7.61
20.51
32.89
28.74
16.32
6.9
7.81
17.71
27.42
26.2
8.88
-19.65
-46.41
-57.31
-45.1
-14.34
20.79
43.93
45.34
26.83
0.13
-20.32
-25.67
-17.23
-4.62
0.87
-6.39
-22.59
-36.9
-38.01
-21.41
7.56
35.87
49.91
42.74
17.78
-12.95
-35.69
-41.94
-32.67
-17.16
-6.9
-8.8
-20.77
-33.01
-34.08
-17.95
11.44
41.56
58.04
52.67
28.19
-2.97
-25.87
-31.21
-20.52
-4.37
4.6
-0.25
-15.09
-28.15
-26.83
-5.97
28.39
61.85
79.49
74.04
49.63
19.16
-3.39
-10.7
-5.56
1.76
0.5
-13.64
-35.61
-53.68
-56.41
-39.41
-8.19
24.11
43.82
43.78
26.8
3.96
-12.25
-14.82
-6.14
3.67
3.32
-12.57
-39.41
-64.81
-75.26
-63.82
-34.58
-0.44
24.07
30.85
22.43
10
5.92
15.87
34.97
50.76
51.01
31.54
-0.43
-29.95
-42.39
-31.76
-3.92
26.89
46.15
46.97
33.17
16.28
7.81
12.23
24.34
32.56
26.23
2.3
-32.04
-62.71
-76.04
-65.93
-37.21
-3.17
21.56
28.64
19.83
5.26
-3.46
-0.19
11.8
22.17
20.34
2.61
-24.34
-46.78
-51.43
-33.3
0.53
34.54
53.06
48.75
26.27
-0.93
-18.59
-19.71
-7.96
5.64
10.12
1.67
-13.96
-25.16
-22.18
-3.74
21.51
39.52
38.92
17.7
-15.17
-44.1
-55.07
-42.71
-12.84
20.62
43.1
46.47
32.6
11.33
-5.78
-11.84
-8.25
-3
-4.91
-17.59
-36.33
-50.65
-50.76
-33.93
-7.44
15.19
21.81
9.09
-14.91
-34.73
-36.24
-14.91
21.14
55.43
72.12
64.56
38.6
8.76
-10.02
-10.6
3.34
20.41
28.9
23.73
8.97
-5.48
-10.82
-5.17
5.01
8.89
-1.58
-26.07
-54.94
-73.87
-71.92
-47.81
-11.5
20.59
34.22
24.87
0.21
-24.04
-32.49
-18.38
12.76
46.57
67.81
68.55
52.09
29.85
14.36
11.65
18.34
24.83
22.11
7.88
-11.83
-26.59
-28.78
-18.64
-4.7
1.17
-8.74
-32.88
-60.65
-77.66
-73.99
-49.6
-15.02
14.13
25.52
16.65
-3.58
-20.08
-19.8
0.84
33.64
63.28
75.78
66.21
41.37
15.64
2.75
8.04
25.97
43.78
49.33
38.04
15.17
-7.8
-20.21
-18.51
-8.09
0.45
-1.93
-16.83
-37.13
-51.24
-50.38
-34.26
-12.07
2.85
1.01
-17.22
-41.13
-55.57
-49.5
-22.54
14.46
45.19
56.54
45.45
19.86
-6.15
-20.14
-17.67
-3.93
10.31
15.47
8.83
-3.92
-13
-10.98
1.85
17.02
23.01
12.67
-11.6
-38.22
-52.46
-44.88
-16.86
19.52
47.89
56.18
42.69
16.44
-8.47
-20.61
-17.13
-4.49
6.35
6.83
-3.71
-17.59
-23.77
-15.03
6.84
30.98
43.48
35.41
8.4
-25.72
-51.35
-57.45
-43.37
-18.67
3
11.72
6.75
-3.71
-8.25
0.36
20.16
40.78
49.47
38.76
11.45
-20.14
-40.56
-39.42
-17.03
15.7
43.42
54.63
47.47
29.86
13.85
7.97
12.02
17.59
14.05
-4.31
-33.61
-61.69
-74.53
-64.16
-33.69
3.85
32.11
40.17
27.87
5.28
-13.88
-19.91
-12.42
0.17
6.86
1
-15.13
-31.48
-36.52
-24.37
0.75
26.49
38.86
30.41
4.7
-25.26
-43.83
-41.22
-18.51
12.74
37.64
45.89
37.27
20.89
8.73
8.11
16.86
25.21
22.14
3.09
-26.38
-52.87
-62.62
-49.64
-19.3
13.71
33.54
31.45
10.21
-17.66
-37.12
-38.4
-22.18
1.89
21.09
27.02
20.19
8.75
2.71
7.14
18.86
28.08
25.16
7.17
-19.31
-41.03
-45.9
-29.85
-0.26
27.84
39.73
29.07
1.6
-27.96
-43.48
-36.28
-9.12
25.15
50.87
57.64
45.41
23.52
4.62
-2.41
2.46
11.56
14.97
7.17
-9.12
-24.7
-29.96
-21.36
-4.16
10.16
11.06
-4.41
-29.24
-49.64
-53.23
-35.9
-4.98
24.72
38.87
31.45
8.2
-16.92
-29
-20.53
5.13
35.7
57.14
61.21
49.43
31.27
17.34
12.96
14.67
13.23
0.29
-25.25
-55.11
-75.55
-75.06
-51.55
-14.16
20.81
38.52
33.19
10.72
-14.96
-29.94
-27.53
-11.65
6.59
15.89
11.6
-1.41
-12.36
-11.54
2.96
23.62
37.43
33.88
11.59
-20.19
-45.89
-52.33
-35.71
-4.15
27
43.41
39.33
20.2
-1.39
-13.09
-10.05
3.06
15.39
17.15
5.71
-12.58
-26.28
-26.33
-11.66
9.02
22.3
17.83
-5.29
-37.28
-62.67
-68.34
-50.76
-17.53
16.78
38.71
42.96
34.33
23.96
21.53
29.34
40.32
42.93
28.64
-2.03
-38.49
-65.46
-70.85
-52.48
-19.16
14.06
34.18
36.82
27.66
18.23
17.83
27.95
40.66
43.92
29.12
-2.91
-41.17
-70.1
-77.52
-61.32
-30.22
1.14
20.4
23.84
17.43
12.28
16.81
31.44
47.51
52.85
39.21
7.94
-29.64
-58.09
-65.6
-50.49
-21.65
6.55
22.4
22.98
14.89
9.53
15.15
31.63
49.58
56.15
42.7
10.55
-28.85
-59.87
-70.65
-59.42
-34.74
-10.22
3.47
4.41
-0.35
0.21
13.25
37.35
62.12
74.26
65.17
36.24
-1.18
-31.95
-44.75
-38.07
-20.07
-3.4
2.5
-3.12
-12.48
-14.35
-1.85
23.09
49.47
63.52
56.39
29.35
-6.35
-35.9
-48.44
-42.92
-27.62
-14.65
-12.31
-20.06
-29.22
-28.57
-12.14
16.81
46.27
62.34
56.77
31.77
-1.1
-27.46
-37.58
-31.55
-18.06
-8.85
-11.19
-23.55
-36.77
-39.57
-25.97
0.99
29.88
47.07
43.82
21.06
-10.96
-38.35
-50.36
-45.05
-29.24
-13.9
-7.38
-10.28
-15.43
-12.95
2.5
27.58
50.83
59.38
46.7
17.28
-15.26
-35.3
-33.58
-12.36
16.33
37.52
41.55
29.04
9.38
-5.41
-8.3
-1.25
6.54
5.01
-9.86
-32.77
-51.48
-54.27
-36.77
-5.54
24.9
39.98
32.91
8.45
-19.63
-35.81
-31.28
-8.3
21.51
43.71
49.02
38
19.63
5.12
1.01
5.28
9.18
3.66
-14.21
-38.33
-56.46
-57.59
-38.7
-7.56
21.14
33.57
24.59
0.66
-23.5
-33.01
-20.89
8.25
40.66
61.3
61.78
44.56
20.62
2.41
-3.46
0.08
3.52
-2.65
-21.02
-44.78
-61.12
-58.99
-36.19
-1.47
29.36
42.19
32.05
5.81
-21.87
-36.64
-32.03
-12.73
9.19
21.42
18.76
5.94
-5.74
-5.73
8.65
30.2
45.52
43.16
20.65
-13.48
-44.18
-58.14
-50.85
-29.02
-5.82
6.75
4.9
-5.29
-12.09
-5.8
14.69
40.77
58.58
57.09
34.64
0.46
-30.17
-44.05
-36.86
-15.37
7.11
18.48
14.58
1.15
-10.26
-9.85
4.04
23.49
35.57
30.08
6.12
-26.53
-52.34
-58.25
-40.96
-8.92
22.52
39.84
38.66
25.43
12.53
9.8
18.38
29.95
32.55
18.61
-9.7
-40.74
-59.8
-56.91
-32.66
2.12
32.02
45.16
38.9
20.59
2.47
-5.74
-2.25
6.08
8.79
-1.21
-22.54
-45.35
-56.91
-49.21
-24.05
7.22
29.63
32.62
15.76
-11.2
-33.68
-40.07
-27.62
-3.59
19.49
30.98
28.13
17.23
8.84
10.84
22.72
35.56
37.56
21.94
-8.21
-40.42
-59.33
-55.38
-30.17
3.92
30.54
37.83
24.55
0.06
-21.37
-28.47
-18.83
0.41
17.48
23.24
16.54
4.75
-1.59
4.16
19.94
35.53
38.85
23.51
-6.58
-38.42
-56.72
-52.06
-26.29
8.31
35.62
43.95
32.06
8.93
-11.95
-20.37
-14.91
-3.04
4.33
0.16
-14.04
-28.79
-32.82
-20.31
4.69
29.75
41.07
31.26
3.88
-28.11
-49.04
-48.74
-27.78
3.21
29.6
40.72
35.36
21.5
10.49
9.84
18.44
27.44
26.42
10.53
-15.71
-40
-49.37
-37.52
-9.05
22.46
41.61
39.21
17.12
-12.97
-35.73
-40.37
-25.89
-1.15
20.76
30.07
25.58
14.44
6.61
8.18
17.05
24.38
20.74
2.76
-23.77
-46.37
-53.13
-39.62
-12.17
15.05
27.76
19.27
-5.54
-32.66
-46.41
-37.9
-9.73
25.33
51.33
57.62
44.28
21.14
1.82
-4.09
3.89
17.73
26.53
23.29
9.08
-7.94
-18.28
-17.13
-7.84
0.14
-2.59
-18.99
-42.66
-60.87
-62.04
-42.94
-11.44
17.17
28.78
18.37
-6.91
-31.48
-40.09
-26.03
5.11
38.68
59.01
57.6
37.3
9.91
-10.69
-16.17
-7.73
5.52
12.83
8.68
-3.89
-15.5
-17.19
-6.57
9.72
19.87
14.35
-7.7
-36.93
-58.38
-60.04
-39.59
-6.41
23.39
35.57
25.42
0.21
-24.74
-34.33
-21.65
8.51
42.58
65.73
69.71
56.77
37.04
22.12
18.02
22.02
25.4
19.7
2.76
-19.45
-36.21
-39.11
-27.45
-9.58
1.83
-2.72
-23.35
-49.94
-67.24
-63.54
-37.65
-0.1
32.15
44.95
34.53
9.37
-14.74
-23.57
-11.97
13.56
39.2
51.7
45.61
25.87
3.98
-8.91
-8.56
0.37
7.91
5.48
-8.1
-25.56
-35.48
-29.92
-9.98
13.78
27.25
21.08
-3.48
-34.57
-55.87
-55.44
-32.17
3.55
35.56
50.31
43.73
22.56
-0.22
-12.88
-11.26
-0.47
9.19
9.13
-1.81
-16.26
-23.31
-15.73
4.55
26.69
36.98
27.12
-0.37
-32.82
-53.87
-52.39
-28.5
6.39
35.96
47.41
38.15
16.23
-4.95
-14.52
-10.13
1.27
8.72
4.6
-10.13
-25.94
-31.06
-19.09
6.13
31.97
44.12
34.96
8.3
-22.41
-41.12
-38.04
-14.62
17.33
42.36
49.58
38.14
16.88
-1.7
-8.72
-4.04
4.16
5.31
-6.32
-27.25
-46.1
-50.55
-34.94
-4.66
26.16
42.35
36.17
11.53
-18.35
-38.4
-39.94
-25
-4.1
10.3
11.14
0.63
-11.62
-15.02
-4.77
14.85
32.27
35.61
19.59
-10.67
-41.8
-59.19
-54.63
-30.97
-0.33
22.82
29.85
22.48
11.12
7.69
17.67
36.09
50.57
49.06
27.77
-5.65
-36.13
-49.43
-40.1
-14.48
13.41
29.97
29.61
17.14
4.39
2.1
13.44
31.86
44.59
40.5
16.75
-18.85
-51.79
-68.43
-63.2
-41.6
-16.38
-0.17
2.09
-4.53
-8.69
-0.46
21.61
48.71
66.64
64.16
39.86
3.61
-28.96
-44.94
-40.96
-24.31
-7.87
-2.14
-9.09
-21.48
-27.45
-18.47
5.28
34.19
54.16
54.51
34.03
2.05
-26.76
-40.22
-35.23
-19.27
-4.98
-2.56
-13.07
-27.88
-34.15
-22.86
4.7
37.24
59.54
61.23
42.62
14.48
-8.53
-16.54
-9.86
1.72
5.5
-6.08
-30.55
-56.66
-70.76
-64.79
-40.76
-9.66
14.88
24.14
18.95
8.74
5.21
15.32
36.42
57.05
63.82
49.02
15.9
-22.43
-50.2
-57.4
-45.35
-25.05
-10.06
-8.04
-16.31
-24.17
-19.89
1.13
33
62.34
75.79
67.52
42.64
14.15
-4.6
-7.16
2.76
13.68
13.65
-2.69
-30.74
-58.2
-72.27
-66.51
-44.47
-17.58
1.75
7.19
1.99
-3.45
1.64
21.27
49.12
71.71
75.85
56.55
20.69
-16.62
-40.15
-42.92
-29.76
-13.43
-6.31
-12.69
-26.39
-34.89
-27.65
-3.2
29.55
55.99
64.2
51.58
26.05
1.25
-11.67
-10.14
-1.2
3.35
-5.46
-27.91
-54.85
-72.73
-71.25
-49.33
-16.11
14
29.11
26.12
11.98
-0.9
-2.36
9.36
26.17
35.22
26.66
0.17
-33.99
-60.36
-66.56
-50.35
-20.71
7.77
23.39
24.07
17.81
16.9
29.53
53.65
77.5
86.43
71.7
36.37
-5.92
-38.38
-50.08
-41.64
-23.84
-10.26
-8.95
-17.92
-27.25
-25.85
-9.08
18.13
44.02
56.8
51.68
33.63
14.43
5.88
13
31.01
47.66
50.19
32.34
-1.68
-38.97
-65.25
-72.24
-62.02
-45.5
-35.42
-38.75
-52.8
-67.03
-69.91
-55.94
-29.3
-1.28
16.46
18.84
10.59
2.98
7.06
26.57
54.69
77.66
82.3
63.88
29.48
-5.5
-25.99
-25.73
-10.62
5.16
8.24
-5.75
-29.61
-49.1
-51.89
-35.08
-6.8
19.04
31.26
28
17.31
11.7
20.13
42.2
67.88
83.1
77.62
50.8
12.36
-22.99
-43.48
-46.11
-37.63
-29.62
-31.12
-42.98
-57.32
-62.37
-50
-21.07
14
40.65
48.04
34.98
10.53
-11.54
-20.42
-14.32
-1.04
7.48
2.78
-14.38
-33.98
-42.72
-32.1
-4.22
28.58
50.46
51.01
30.98
1.79
-21.37
-28.3
-19.41
-4.64
3.44
-2.06
-17.6
-31.48
-30.89
-10.47
23.8
57.29
74.77
68.8
43.64
12.54
-10.3
-17.35
-11.36
-2.59
-1.71
-13
-31.5
-45.83
-45.25
-26.21
4.99
34.88
49.98
43.91
20.57
-7.98
-28.73
-34.48
-27.61
-17.79
-15.42
-24.78
-40.62
-51.29
-45.72
-20.74
15.76
48.72
64
56.34
32.32
6.38
-7.83
-5.24
7.87
18.66
16.05
-1.84
-26.17
-42.39
-39
-14.79
20.24
50.19
62.08
52.71
29.56
5.85
-7.71
-8.71
-3.66
-3.06
-14.17
-36
-59.12
-70.87
-62.96
-36.46
-2.34
24.21
31.69
18.44
-6.57
-28.85
-36.14
-25
-2.47
18.82
28.08
23.01
10.98
3.88
10.33
29.25
49.87
58.02
44.96
13.36
-23.53
-48.9
-51.68
-32.74
-3.71
19.97
28.17
21.34
9.2
3.7
10.75
26.39
39
36.79
15.34
-18.96
-51.93
-69.14
-63.51
-38.99
-8.12
15.09
22.59
16.1
5.39
1.41
9.57
26.05
39.72
39.07
19.37
-13.61
-46.19
-63.92
-59.3
-36.2
-7.14
13.9
19.64
13.33
6.1
9.36
26.9
51.64
69.56
68.09
44.04
6.3
-28.96
-47.07
-42.92
-23.4
-2.45
7.54
3.04
-9.2
-16.74
-9.97
11.64
38.75
57.05
55.54
32.65
-2.63
-35.72
-54.33
-54.48
-42.1
-28.61
-23.85
-30.11
-40.93
-45.25
-34.57
-8.59
23.4
47.55
52.97
38.12
12.1
-10.78
-19.02
-10.6
5.79
16.65
11.98
-8.17
-33.52
-49.44
-45.83
-23.22
7.65
32.28
41.03
34.52
22.53
17.55
26.54
46.33
65.23
69.86
53.1
18.59
-20.95
-50.65
-61.41
-54.23
-38.96
-27.69
-27.49
-36.48
-45.32
-43.38
-25.49
4.42
34.74
52.59
50.86
32.45
8.79
-6.74
-6.28
7.64
23.65
28.48
15.11
-12.46
-41.24
-56.49
-50.43
-26.78
1.84
21.56
25.6
17.88
9.86
12.95
30.64
55.92
74.99
75.34
53.09
15.62
-22.4
-47.08
-52.45
-43.03
-30.34
-25.4
-32.12
-45.14
-53.17
-46.38
-22.62
10.44
38.99
50.67
41.44
18.02
-6.07
-18.15
-13.6
1.46
14.57
14.61
-0.8
-23.38
-39.01
-35.98
-12.63
21.37
50.2
60.94
50.64
27.47
5.38
-4.74
-1.31
7.6
10.02
-1.94
-26.56
-53
-67.24
-60.23
-33.25
2.37
31.24
42.14
33.64
14.32
-2.89
-8.29
-0.88
11.22
16.6
7.76
-13.34
-35.82
-46.03
-35.53
-6.97
26.89
49.9
51.57
32.7
4.53
-18.12
-25.43
-17.9
-4.98
1.5
-4.97
-21.29
-36.74
-39.64
-24.89
2.64
30.11
43.86
36.84
12.45
-17.3
-38.45
-42.21
-29.4
-9.46
5.63
8.21
-0.47
-11.25
-13.32
-1.2
20.82
40.65
45.53
30.03
0.08
-29.66
-43.51
-33.65
-4.56
29.8
53.81
58.78
47.16
29.76
18.24
17.61
23.54
25.69
15.07
-9.55
-39.81
-61.79
-63.96
-43.66
-9.31
23.62
40.71
36.06
14.93
-9.55
-24.13
-22.66
-9.3
4.85
9.04
-0.09
-16.08
-26.81
-22.18
-1.23
26.36
45.57
44.72
22.46
-11.11
-40.06
-51.47
-42.25
-20.27
0.91
10.09
4.7
-8.38
-17.48
-14.11
1.85
21.4
31.74
23.83
-1.79
-34.57
-59.3
-63.94
-46.12
-14.5
16.46
34.44
35.98
27.7
21.14
24.95
38.72
53.09
55.77
39.71
8.46
-25.03
-45.21
-42.7
-19.6
11.77
35.79
42.09
30.69
11.08
-4.11
-7.08
0.93
10.44
10.13
-6.09
-34.68
-63.94
-80.21
-75.21
-50.8
-18.09
8.78
20.41
17.1
8.2
5.78
16.98
38.85
59.57
65.56
49.68
16.37
-20.43
-44.74
-47.49
-31.43
-8.63
7.14
8.93
0.35
-7.46
-3.23
16.58
45.08
68.55
74.27
57.89
26.12
-6.91
-27.71
-30.55
-20.33
-9.3
-9.32
-24.71
-49.44
-70.33
-74.8
-58.01
-26.03
7.33
28.31
30.68
18.78
4.33
-1.09
6.81
22.18
33.21
29.6
9.76
-17.29
-36.75
-36.35
-14.05
20.3
50.18
61.53
50.33
24.27
-2.26
-17.01
-16.65
-7.85
-2.22
-8.38
-26.26
-46.84
-57.44
-49.6
-24.42
7.49
31.42
36.57
21.82
-3.95
-26.88
-35.59
-26.96
-7.61
10.83
18.51
13.26
1.83
-4.95
0.92
18.64
38.32
46.69
35.3
6.36
-27.47
-49.51
-48.14
-23.49
12.68
43.43
55.95
48.1
28.4
10.03
2.57
6.58
14.26
15.31
4.06
-16.37
-35.61
-42.59
-32.59
-10.57
10.88
18.72
6.94
-19.77
-47.81
-62.05
-53.68
-25.1
11
38.6
46.54
34.37
11.77
-7.47
-13.35
-5.41
7.96
15.47
10.54
-4.19
-18.43
-21.33
-8.83
12.64
29.8
30.42
11.23
-19.42
-45.81
-53.3
-36.8
-3.36
31.49
52.24
51.37
32.55
7.75
-10.14
-14.28
-7.09
2.02
3.18
-7.65
-25.68
-39.95
-40.14
-23.13
3.94
27.21
33.86
19.77
-7.6
-32.96
-41.47
-27.18
3.63
36.39
56.44
57.2
43.24
26.3
17.38
19.74
27.18
28.62
15.74
-10.93
-41.44
-61.39
-60.27
-37.43
-3.07
26.79
38.82
29.09
4.75
-20.34
-33.28
-28.94
-12.38
5.02
12.69
7.41
-4.73
-12.77
-8.12
9.08
29.24
38.97
29.52
2.72
-29.13
-49.62
-47.46
-22.76
13.01
43.33
55.59
47.43
26.78
6.42
-4.14
-3.78
0.38
-1.61
-15.7
-39.32
-62.01
-71.48
-60.65
-32.34
1.17
24.7
28.13
11.9
-13.18
-31.91
-32.92
-14.91
13.02
37.08
46.79
40.96
27.48
17.6
18.25
27.26
35.01
30.84
10.64
-19.66
-46.64
-56.88
-44.78
-15.98
15.1
33.09
29.65
7.69
-20.37
-39.52
-39.92
-21.83
4.82
26.59
34
26.63
12.52
2.44
2.93
11.78
19.89
17.54
1.53
-21.75
-39.5
-40.21
-21.11
9.3
35.57
43.79
29.41
-0.13
-29.18
-42.51
-33.1
-5.65
26.1
47.12
48.77
32.97
10.23
-6.86
-10.81
-3.25
6.92
9.78
1.16
-14.43
-26.73
-26.76
-13.14
5.88
17.35
11.59
-11.36
-40.66
-60.44
-58.72
-34.37
1.93
33.14
45.04
33.54
6.5
-20.53
-32.97
-24.45
-0.05
27.1
43.27
41.65
25.76
6.46
-4.62
-2.32
9.21
19.85
20.37
8.72
-8.41
-20.17
-18.96
-5.82
9.47
14.5
2.05
-24.82
-53.8
-69.83
-63.85
-37.86
-4.2
21.02
26.65
12.32
-11.34
-28.73
-27.67
-6.01
26.97
55.85
67.36
57.54
33.7
9.74
-1.6
3.83
19.94
34.66
37.69
26.62
8.09
-7.08
-10.94
-3.69
6.67
9.74
-0.48
-21.26
-42.54
-52.78
-46.23
-26.53
-5.31
4.6
-3.46
-25.85
-50.07
-61.83
-52.81
-25.72
6.8
29.3
32.03
16.7
-4.52
-16.07
-7.92
18.26
49.97
70.99
70.65
49.87
20.42
-1.84
-6.05
7.67
29.04
43.89
42.55
25.1
0.7
-18.13
-23.04
-14.35
-0.49
7.62
3.25
-12.19
-30.11
-40.62
-38.47
-26.69
-14.89
-13.15
-25.54
-46.9
-65.3
-68.88
-52.98
-23.6
5.47
20.42
15.37
-3.72
-22.41
-25.95
-7.82
25.97
60.25
79.02
74.29
50.41
21.17
2.02
1.31
16.35
35.68
46.44
41.81
24.58
4.62
-7.78
-8.28
-1.03
4.44
-0.36
-17.12
-39.25
-55.49
-57.11
-43.3
-22.33
-7.12
-7.61
-24.8
-49.51
-67.01
-65.35
-41.95
-5.74
27.47
43.5
37.49
16.73
-3.6
-8.86
6.8
36.91
66.48
80.38
71.83
46.16
17.32
-0.1
0.87
15.83
32.5
38.41
28.48
7.76
-12.03
-20.04
-13.05
2.64
15.31
15.37
1.28
-19.5
-35.33
-37.83
-27.13
-11.82
-3.59
-9.77
-28.56
-49.83
-61.13
-55.26
-34.54
-9.96
5.32
3.42
-13.66
-34.89
-46.59
-40.06
-16.37
13.86
36.37
40.96
27
3.98
-13.68
-14.54
3.69
32.66
58.05
67.31
56.5
32.37
8.32
-3.2
2.32
19.04
34.77
38.39
26.64
5.94
-11.95
-17.39
-9.14
4.6
11.61
3.57
-18.13
-42.45
-55.16
-47.53
-22.2
7.64
25.58
21.54
-2.28
-32.4
-51.45
-47.76
-21.71
14.63
44.48
55.32
45.29
23.13
2.2
-7.44
-4.35
4.36
8.6
2.18
-12.95
-27.6
-31.47
-19.9
2.38
23.25
29.94
16.45
-12.42
-43.07
-59.97
-53.91
-26.8
9.16
38.01
48.13
38.05
16.33
-4.1
-13.27
-9.78
-0.77
3.35
-4.19
-21.74
-39.61
-46.02
-34.24
-7.47
22.05
39.67
36.34
13.98
-15.43
-36.25
-37.66
-19.53
7.92
30.43
37.92
30.31
16.91
10.05
16.9
34.34
50.61
52.59
34.23
1.13
-32.11
-49.62
-43.1
-16.48
16.5
40.07
45.07
33.26
15.29
3.2
2.99
11.22
17.7
12.52
-7.25
-34.92
-57.52
-62.83
-46.53
-14.83
18.32
38.52
38.2
20.18
-4.39
-22.92
-28.02
-21.39
-11.86
-9.4
-18.72
-35.7
-49.57
-49.26
-30.24
1.91
33.68
50.73
45.72
22.22
-7.06
-27.69
-31.16
-19.49
-3.09
6.04
1.93
-11.3
-22.15
-18.87
2.65
35.4
64.49
75.4
62.2
30.95
-3.52
-26.15
-29.7
-18.31
-3.96
1.42
-6.47
-21.76
-32.2
-26.98
-4
28.34
55.28
63.88
50.16
21.07
-9.45
-28.54
-31.13
-21.95
-11.94
-11.02
-22.05
-38.89
-50.12
-45.88
-23.94
8.37
37.54
51.14
44.38
22.63
-1.49
-15.59
-14.22
-2.16
8.84
7.33
-10.57
-37.96
-60.97
-66.29
-49.15
-16.39
17.29
37.58
38.5
25.29
10.72
6.65
16.63
33.56
44.33
38.26
14.18
-18.04
-42.85
-47.48
-29.43
2.29
32.23
47.38
44.08
29.18
15.34
12.52
21.96
35.41
40.38
27.87
-1.77
-38.26
-66.98
-76.49
-64.61
-39.26
-13.61
1.24
2.06
-5.52
-11.05
-6.42
9.22
28.22
38.95
32.65
8.93
-22.95
-48.71
-56.14
-41.6
-12.04
18.81
37.85
39.54
28.3
15.23
10.67
17.68
29.89
35.82
26.33
1.14
-29.63
-50.86
-50.62
-27.42
8.37
40.14
54.02
46.3
24.71
3.25
-6.59
-2.29
8.8
14.97
8.14
-10.68
-31.53
-41.53
-32.7
-7.27
23.09
43.45
43.64
23.74
-6.33
-32.31
-43.16
-36.48
-19.07
-2.23
4.87
0.31
-9.93
-16.39
-12.58
0.53
14.35
17.78
4.23
-23.65
-53.99
-71.65
-66.31
-38.32
0.52
33.05
45.45
34.46
8.97
-15.11
-23.46
-11.08
15.23
41.39
54.09
48.32
29.64
10.01
0.39
3.95
14.65
21.84
17.56
2.07
-16.07
-25.52
-19.68
-1.47
17.83
25.4
14.94
-9.06
-33.52
-44.38
-35.13
-10.75
14.77
26.72
18.17
-5.9
-31.35
-43.13
-33.65
-6.98
23.45
42.52
41.53
22.69
-2.31
-19.01
-18
0.22
25.82
45.27
48.7
35.1
12.59
-6.29
-11.63
-1.52
16.95
31.97
33.74
20.01
-2.68
-23.08
-31.71
-26.31
-13.1
-2.59
-3.06
-15.42
-32.5
-43.74
-41.78
-27.4
-9.45
0.61
-4.11
-21.18
-39.91
-47.61
-37.31
-12.59
14.01
28.09
21.83
-0.99
-26.8
-39.82
-30.93
-2.99
30.59
53.49
55.5
37.95
12.57
-5.53
-6.46
9.15
31.13
46.27
46.25
32.25
13.74
1.88
2.34
11.61
19.21
14.57
-6
-36.17
-62.44
-71.61
-58.28
-28.1
4.73
25.12
24.72
6.18
-18.5
-34.59
-32.21
-11.32
18.48
43.58
53.63
47.01
30.97
16.49
11.5
15.73
21.14
17.51
-0.43
-28.46
-54.15
-64.07
-51.62
-21.99
10.11
28.41
24.13
1.03
-26.9
-43.18
-38.12
-13.92
17.15
40.23
46.39
37.19
22.77
14.58
17.87
28.31
34.96
27.55
3.64
-28.91
-55.62
-63.32
-47.58
-15.44
18.07
37.79
36.07
16.25
-9.64
-27.82
-29.83
-16.45
3.46
18.65
21.77
13.43
0.95
-6.74
-4.87
3.73
10.44
6.37
-11.59
-37.86
-60.12
-66.24
-50.98
-19.83
13.24
33.05
31.15
10.43
-16.67
-35
-35.01
-17.73
6.42
24.17
27.32
17.49
4.72
0.55
10.4
29.59
45.75
46.55
27.62
-3.82
-32.23
-42.33
-27.51
5.96
42.21
64.38
63.51
42.84
15.21
-4.75
-8.81
0.86
14.02
19.39
11.77
-4.72
-19.48
-22.57
-11.33
7.18
20.13
16.49
-5.94
-38.56
-66.01
-74.38
-58.64
-25.35
10.77
34.65
38.4
24.7
4.34
-10.54
-13.08
-5.2
4.62
7.17
-1.56
-17.38
-30.41
-31.2
-16.78
6.55
26.28
30.55
15.11
-13.79
-41.95
-54.73
-44.71
-15.89
18.39
42.58
47.11
33.24
11.38
-5.32
-8.83
-0.62
9.92
12.04
0.91
-18.76
-35.07
-36.57
-19.41
9.14
34.27
42.06
27.63
-1.51
-29.19
-39.37
-24.99
8.21
44.77
68.11
69.32
51.29
26.04
7.26
2.47
9.34
18.27
19.19
8.31
-9.38
-23.34
-24.79
-12.67
4.75
14.49
6.86
-18.19
-50.1
-72.87
-73.91
-51
-13.83
21.04
38.97
34.52
13.95
-8.83
-19.83
-12.38
9.75
35.03
50.69
49.43
33.16
11.03
-6.03
-11.45
-6.53
1.16
2.82
-5.8
-21.71
-36.4
-41.62
-34.58
-20.3
-8.79
-8.8
-22.3
-42.63
-57.94
-58.03
-40.49
-12.65
12.15
22.04
13.29
-7.28
-25.96
-29.86
-14.14
14.92
43.29
56.99
49.86
27.2
3.02
-7.97
1.5
26.99
54.73
69.38
62.56
37.42
6.86
-13.9
-15.71
-0.37
20.76
33.91
30.87
13.52
-7.74
-20.9
-19.66
-7.49
4.88
6.49
-6.55
-28.04
-44.96
-45.53
-26.76
2.85
27.59
33.44
16.4
-14.89
-43.46
-53.44
-38.75
-6.41
27.65
47.45
45.64
26.86
4.11
-9.1
-6.43
8.32
24.37
30.97
23.92
7.98
-6.46
-10.35
-1.78
12.34
20.16
12.2
-12.66
-45.56
-71.59
-77.72
-59.66
-24.63
12.15
35.29
37.02
20.78
-1.56
-16.71
-17.51
-6.68
5.71
9.11
-0.58
-17.78
-30.59
-28.35
-8.64
20.04
42.73
46.57
28.41
-2.84
-30.93
-40.98
-27.66
2.16
33.64
52.34
52.15
37.7
20.78
12.22
15.32
24.05
27.36
16.68
-8.15
-37.89
-58.6
-59.32
-38.26
-4.18
27.84
44.18
39.34
18.23
-7.03
-24.43
-28.22
-21.79
-14.74
-16.44
-29.85
-48.86
-61.63
-57.39
-33.23
3.14
36.82
53.68
47.91
25.16
-0.7
-15.78
-13.8
0.5
15.1
18.42
6.92
-12.38
-26.18
-22.85
-0.12
33.05
61.11
70.55
57.35
28.85
-0.59
-18.18
-19.44
-10.14
-1.76
-3.99
-18.64
-38.25
-50.55
-45.75
-22.55
10.65
39.69
52.15
43.73
20.17
-6.06
-23.03
-25.41
-17.2
-8.51
-8.96
-21.47
-39.66
-51.57
-46.55
-22.12
13.42
45.05
59.06
50.54
26.09
-0.16
-14.86
-12.91
-0.1
11.41
10.98
-3.51
-24
-37.05
-32.01
-7.86
25.81
53.56
62.57
49.36
21.19
-8.09
-26.18
-28.36
-19.53
-10.38
-10.41
-21.96
-38.35
-47.83
-40.6
-15.08
20.02
49.95
61.7
51.14
25.23
-2.13
-17.97
-17.39
-5.96
4.75
4.56
-8.66
-27.51
-39.57
-35.2
-13.76
15.51
38.12
42.55
26.41
-2.17
-29.07
-41.86
-35.99
-16.97
3.54
14.66
12.62
2.81
-4.05
1.06
19.14
41.57
54.92
48.82
22.52
-13.84
-44.59
-56.77
-46.93
-22.69
2.24
15.86
14.33
3.37
-5.81
-4.22
9.38
27.29
37.35
30.37
6.07
-25.72
-49.95
-54.01
-34.75
-0.44
33.74
53.63
53.52
38.34
19.8
8.67
8.42
13.46
13.58
1.11
-23.46
-50.57
-66.69
-62.02
-36.54
-0.95
28.67
39.24
27.63
2.04
-22.65
-33.06
-24.36
-2.52
19.99
31.65
28.5
15.97
4.75
3.39
12.69
24.7
27.72
13.85
-15.48
-49.08
-71.42
-70.85
-46.07
-7.29
28.99
48.42
46.06
28.23
7.93
-2.96
-0.35
10.25
18.15
14.69
-1.05
-21.11
-33.5
-29.55
-9.52
16.66
34.71
33.84
13.01
-18.18
-44.25
-52.05
-37.57
-7.84
23.19
42.54
45.08
35.51
24.29
20.34
25.16
31.76
29.73
12.5
-17.49
-48.67
-66.37
-60.81
-33.04
4.92
36.17
47.59
36.52
11.6
-12.6
-23.85
-18.57
-3.25
10.41
12.96
2.89
-12.42
-21.63
-16.62
1.88
24.1
36.71
30.44
5.97
-25.85
-49.35
-52.34
-32.62
0.82
32.62
49.45
46.69
30.23
11.89
1.9
2.7
7.83
6.91
-7.21
-32.94
-59.63
-73.46
-65.26
-36.55
0.52
29.38
37.85
24.67
-0.21
-21.53
-27.28
-15.07
6.98
25.88
31.51
22.47
6.6
-4.36
-2.26
12.04
28.97
35.92
25.07
-1.38
-31.73
-50.74
-47.97
-23.48
11.88
42.39
55.74
49.2
30.32
11.62
3.07
6.19
13.7
14.76
2.07
-22.76
-49.32
-63.82
-56.93
-29.4
7.57
37.96
49.39
39.36
16.02
-7.11
-18.97
-16.98
-7.87
-2.46
-8.54
-25.45
-44.01
-51.97
-41.64
-15.3
15.42
35.46
34.92
14.63
-14.13
-35.8
-38.97
-22.28
4.94
28.71
38.15
31.38
16.02
3.71
2.7
12.49
24.31
26.62
12.77
-14.22
-42.55
-57.72
-50.82
-23.52
12.01
39.72
47.9
35.14
10.49
-12.2
-21.72
-15.65
-0.66
12.13
14.22
5.03
-7.82
-13.58
-5.66
13.81
34.12
42.26
30.74
2.5
-29.86
-50.76
-49.71
-27.28
5.46
33.04
43.82
35.99
17.54
0.91
-4.72
1.52
12.09
16.51
8.35
-10.3
-29.35
-36.97
-26.65
-1.97
24.64
38.71
31.65
5.93
-25.97
-47.76
-48.18
-26.51
7.06
37.18
51.52
46.89
29.96
12.22
3.08
4.3
9.62
9.75
-1.16
-20.99
-40.25
-47.93
-38.58
-16.38
6.38
16.05
5.73
-20.33
-48.34
-62.48
-53.56
-24.24
11.91
38.12
43.13
27.26
1.68
-17.88
-19.8
-2.75
24.37
47.75
56.7
49.23
32.41
17.03
10.75
13.36
17.11
12.53
-5.01
-31.26
-54.62
-62.83
-50.35
-22.6
6.55
21.89
15.51
-8.66
-36.7
-52.09
-44.77
-16.34
20.39
48.77
56.82
43.39
17.95
-5.35
-15.41
-10.24
3.26
14.16
14.72
5.22
-6.56
-10.87
-2.8
14.1
29.01
30.81
14.98
-12.89
-39.28
-50.35
-39.57
-12.11
18.03
35.29
31.08
8.5
-19.68
-37.71
-35.66
-14.02
16.45
41.42
50.63
43.08
26.73
12.54
7.9
11.74
16.04
11.38
-6.29
-32.09
-54.2
-60.68
-46.81
-18.27
10.84
25.89
19.49
-4.44
-32.6
-49.77
-46.5
-24.34
5.75
29.66
37.86
30.46
16.1
6.14
7.33
17.87
28.42
28.56
13.68
-11.38
-34.11
-41.68
-28.02
1.75
33.76
52.64
49.62
27.2
-2.54
-24.59
-29.25
-16.75
3.54
19.22
22.23
13.3
0.93
-4.84
1.04
14.61
25.12
21.78
0.79
-31.24
-60.16
-71.67
-59.33
-28.23
7.27
31.12
33.91
17.26
-7.58
-26.6
-30.52
-19.68
-2.84
8.78
8.39
-2.11
-13.71
-16.3
-5.47
14.05
30.86
33.66
18.57
-7.9
-31.57
-38.61
-23.11
9.04
42.9
62.63
59.62
36.96
7.07
-15.37
-21.6
-13.01
0.76
8.24
3.5
-10.26
-22.67
-23.25
-8.06
16.84
38.23
43.33
27.14
-4.18
-36.46
-54.82
-51.59
-30.21
-2.64
17.39
22.19
13.84
2.35
-1.43
7.29
23.82
36.39
33.69
11.79
-22.39
-54.52
-70.03
-61.98
-34.88
-1.78
22.78
30.69
23.97
12.66
7.51
13.16
25.2
32.91
26.64
4.32
-25.96
-49.94
-54.96
-37.25
-4.82
26.84
42.75
36.46
13.23
-13.28
-28.73
-25.83
-7.77
14.12
27.64
26.66
14.57
1.48
-2.67
5.32
19.24
27.38
19.8
-4.8
-37.22
-61.98
-65.75
-44.98
-8.12
28.36
48.72
45.99
25.11
-0.56
-16.96
-16.85
-3.47
12.61
20.23
14.52
-0.09
-13.02
-14.45
-1.95
17.58
31.53
29.34
9.12
-20.73
-45.79
-53.73
-40.94
-14.71
11.41
25.26
22.91
10.6
0.43
2.96
20.24
44.4
61.63
60.19
37.3
1.13
-33.46
-53.19
-53.12
-39.16
-23.56
-17.14
-22.75
-33.63
-38.04
-26.66
0.85
35.05
61.44
68.34
53.46
25.17
-2.15
-16.46
-14.33
-2.71
5.92
1.5
-17.3
-41.77
-58.34
-56.07
-33.47
0.53
31.35
46.63
42.91
26.85
11.08
6.08
14.25
28.25
35.65
26.72
0.6
-33.17
-59.98
-67.66
-53.49
-25.54
2.21
17.68
17.44
7.81
0.61
4.91
21.43
41.46
51.99
43.61
16.46
-18.9
-47.3
-56.6
-44.36
-18.86
6.04
18.65
15.94
4.53
-3.8
-0.28
15.32
33.97
42.68
32.54
4.54
-29.98
-55.39
-59.88
-42.03
-11.6
16.35
29.57
25.31
10.95
-1.05
-1.5
10
24.77
30.72
20.17
-4.85
-32.78
-48.96
-43.73
-18.27
15.43
41.24
47.36
32.63
6.55
-16.45
-25.45
-18.9
-4.73
5.11
2.39
-12.13
-28.96
-35.9
-25.64
-0.79
26.58
41.91
36.16
11.23
-20.7
-43.48
-45.47
-25.69
6.23
35.41
49.96
47.02
33.27
19.81
14.81
18.53
23.16
18.81
0.33
-28.21
-54.84
-66.33
-55.79
-27.45
5.29
26.71
27.47
9.44
-15.54
-32.54
-31.88
-14.07
10.62
28.97
32.35
21.72
6.6
-1.35
4.25
19.85
34.1
34.44
15.22
-18.15
-51.37
-68.57
-61.05
-31.87
5.25
33.7
42.41
31.28
10.22
-7.49
-12.8
-6.06
4.38
8.02
-0.67
-18.14
-33.64
-35.79
-20.02
8.05
34.6
45.52
34.28
5.84
-25.62
-44.51
-41.78
-19.92
9.26
31.39
37.48
28.56
13.78
4.2
5.52
14.81
22.48
19.03
1.55
-23.6
-43.73
-47.39
-31.02
-2.04
24.94
35.95
25.4
-0.74
-28.09
-41.4
-32.88
-5.79
27.31
51.78
58.59
48.61
31
16.75
12.09
14.63
15.81
7.17
-13.28
-38.52
-55.93
-54.79
-33.19
-0.07
28.8
39.43
27.28
-0.29
-27.8
-40.33
-31.25
-5.64
23.06
40.79
40.51
25.59
6.73
-4.72
-3.9
5
11.92
7.69
-9.56
-32.57
-48.68
-47.74
-28.3
0.51
23.63
28.51
12.1
-17.18
-43.99
-54.19
-42.47
-14.9
14.91
33.38
34.47
22.33
7.99
1.95
7.61
19.17
25.64
18.27
-3.25
-29.56
-46.68
-44.21
-21.64
10.29
35.44
40.95
24.3
-5.28
-31.68
-40.61
-27.14
2.19
33.23
52.25
53.21
40.21
23.82
14
13.93
18.15
16.99
3.38
-21.74
-48.69
-64.19
-59.1
-34.28
-0.99
24.74
30.81
15.64
-10.97
-33.23
-38.12
-22.32
6.2
33.2
46.3
41.82
26.18
11.16
6.24
12.52
22.09
23.36
8.56
-20.6
-52.84
-73.16
-70.96
-46.14
-9.51
23
38.97
35.77
21.27
8.25
6.09
15.11
26.24
27.27
10.64
-21.04
-55.58
-77.61
-76.6
-52.94
-17.53
14.28
31.07
31.2
22.76
17.81
24.24
40.81
57.38
61.48
46.12
14.77
-19.88
-42.57
-43.66
-24.44
3.82
26.36
33.09
23.77
7.44
-3.65
-1.94
10.8
24.44
26.91
11.97
-16.14
-44.43
-58.1
-48.92
-20.14
15.03
40.68
46.74
33.88
12.41
-4.6
-8.98
-2.02
7.01
7.3
-6.35
-29.46
-50.08
-55.54
-40.14
-9.11
23.57
42.57
39.59
17.56
-11.28
-32.65
-37.98
-28.83
-14.76
-6.99
-11.36
-24.66
-36.72
-36.91
-20.9
6.11
31.46
42.3
32.67
7.38
-20.4
-36.11
-31.6
-9.59
18.32
38.5
43.09
34.24
22.01
17.33
24.54
38.26
46.65
38.98
12.76
-23.7
-55.13
-67.42
-55.14
-24.46
10
33.16
37.15
24.73
6.93
-4.4
-3.4
6.34
14.58
11.45
-5.7
-29.58
-46.83
-45.76
-23.78
10
39.48
50.29
37.79
9.47
-19.52
-34.92
-31.11
-13.43
5.86
15.28
10.79
-2.26
-13.04
-12.65
0.18
17.9
28.38
22.42
-0.42
-30.66
-53.38
-56.16
-35.76
-0.5
34.16
53.66
52
34.42
13.54
1.61
3.16
12.71
19.17
13.5
-4.89
-26.96
-39.5
-33.35
-9.48
20.75
41.73
42.25
21.75
-9.52
-35.91
-45.01
-33.74
-9.48
14.5
26.61
23.08
9.38
-3.88
-7.85
-1.01
9.64
13.36
2.77
-20.64
-46.16
-59.7
-51.85
-24.09
11.2
37.35
42.51
26.15
-0.89
-22.94
-28.35
-15.91
5.41
22.37
25.64
15.15
-0.4
-9.4
-5.03
10.45
26.63
31.17
17.16
-12.36
-45.52
-67.7
-69.05
-49.61
-19.26
8.13
22.13
21.28
13.36
9.72
17.94
36.36
54.51
59.52
44.2
12.3
-22.77
-44.97
-44.33
-22.74
7.62
31.27
38.19
29.05
13.78
4.76
8.56
21.95
33.73
31.94
11.27
-23.01
-57.5
-77.86
-76.27
-55.47
-26.92
-4.01
5.3
2.51
-2.92
-0.17
16.04
41.25
63.23
69.03
52.66
19.4
-16.68
-40.33
-43.35
-29.21
-10.06
0.89
-2.35
-15.1
-25.26
-21.07
0.9
33.24
61.37
71.77
59.41
30.41
-1.65
-23.48
-28.99
-21.86
-12.49
-11.06
-21.22
-37.62
-48.98
-45.19
-23.51
8.71
37.35
49.16
39.05
13
-15.17
-31.44
-29.24
-12.95
5.61
14.56
9.47
-3.84
-13.31
-8.17
13.47
42.85
65.08
67.63
47.48
13.02
-20.7
-40.52
-42
-31.07
-19.61
-17.81
-27.92
-43.03
-51.29
-43.44
-18.56
14.62
41.97
51.7
40.65
16.05
-8.7
-21.48
-18.07
-4.35
8.04
8.94
-3.54
-21.45
-31.86
-24.73
0.05
31.78
54.59
56.51
36.19
3.82
-24.96
-37.93
-32.82
-17.73
-5.34
-4.84
-16.27
-30.88
-36.49
-25.54
0.2
29.98
49.71
49.69
29.93
0.19
-25.41
-35.6
-27.69
-8.79
9.12
16
9.79
-2.44
-9.47
-3.06
15.94
37.31
47.36
37.26
8.84
-25.52
-49.46
-51.48
-31.34
0.24
27.83
40.04
35.37
21.74
10.63
9.12
15.58
20.94
15.05
-6.28
-37.52
-65.45
-76.39
-63.64
-31.77
4.98
30.13
33.36
15.92
-9.95
-27.91
-26.03
-3.49
29.11
55.85
64.31
52.45
29.1
8.55
2.01
11.01
27.38
38.59
35.8
19.16
-2.66
-18.39
-21.23
-13.06
-3.03
-1.41
-13.1
-34.28
-54.44
-62.83
-54.79
-34.72
-13.92
-3.98
-10.23
-28.53
-47.46
-55.06
-45.52
-22.93
0.97
13.71
9.43
-7.18
-23.6
-27.03
-12.17
14.97
40.52
50.86
40.88
17.29
-5.11
-12.21
1.06
27.67
52.51
61.24
48.4
20.58
-7.05
-19.43
-9.76
16.74
45.5
60.83
54.35
29.58
0.12
-18.04
-15.23
6.2
33.35
50.12
46.45
23.91
-5.3
-25.54
-26.88
-10.76
11.43
25.38
22.38
4.22
-18.63
-33.62
-33.79
-21.55
-6.69
0
-6.59
-23.16
-40.24
-48.6
-44.73
-32.96
-22.74
-22.38
-33.74
-50.57
-62.02
-59.14
-40.31
-13.09
9.95
18.38
10.23
-6.41
-18.09
-14.03
7.19
36.03
57.44
59.56
40.71
10.97
-13.36
-18.86
-2.47
26.97
53.69
63.73
52.36
26.22
-0.39
-13.72
-7.76
12.65
34.76
45.25
37.61
15.61
-9.28
-24.62
-24.35
-12.25
0.95
4.52
-5.12
-22.13
-35.01
-34.34
-19.26
1.14
13.45
8.1
-14.33
-42.75
-61.7
-60.29
-38.4
-6.84
18.45
25.3
11.77
-13.01
-33.76
-37.65
-20.77
9.52
38.95
53.98
49.14
29.72
8.16
-2.96
1.65
17.22
32.51
36.97
27.5
10.34
-3.25
-4.66
6.15
20.08
24.64
12
-15.61
-46.26
-64.56
-60.51
-35.14
-0.3
27.47
35.67
22.29
-3.6
-27.08
-35.35
-24.25
-0.26
23.95
36.78
34.24
21.88
10.38
8.48
16.9
27.55
28.99
14.12
-14.36
-44.36
-60.65
-53.67
-25.09
12.64
42.71
52.84
41.22
16.59
-7.29
-19.53
-17.58
-7.83
-0.68
-3.95
-17.6
-33.44
-40.16
-30.24
-5.27
23.65
41.95
39.56
16.94
-14.79
-39.98
-47.02
-34.57
-11.78
7.74
14.12
7.01
-4.88
-9.46
0.57
22.95
46.7
58.26
49.36
21.93
-12.67
-39.76
-48.87
-38.99
-18.82
-0.95
5.24
-0.84
-10.93
-13.64
-1.78
22.22
46.78
57.77
46.82
16.68
-19.6
-45.67
-50.53
-34.41
-7.78
14.97
23.8
18.27
6.62
-0.07
4.39
17.47
29.08
28.11
9.38
-22.34
-53.81
-70.31
-63.16
-34.81
2.02
31.1
41.05
31.02
10.46
-7.11
-12.11
-4.39
7.54
12.59
4.65
-13.07
-29.73
-33.53
-19.32
7.69
34.29
46.58
37.68
11.64
-18.63
-38.15
-37.64
-18.03
10.12
32.91
40.43
31.94
15.66
3
1.58
10.25
19.91
19.65
4.23
-21.74
-45.58
-53.78
-40.16
-10.06
22.19
41.03
38.1
16.62
-10.88
-29.67
-30.82
-15.37
6.85
23.63
27.22
18.5
5.98
-0.2
5.29
19.16
30.96
29.6
10.48
-20.66
-50.06
-63.02
-52.11
-21.72
14.23
39.59
44.67
30.93
9.18
-7.5
-11.47
-4.67
3.59
3.15
-10.21
-31.54
-49.17
-51.64
-34.4
-3.08
28.59
46.19
42.01
19.18
-10.13
-31.53
-35.96
-24.45
-6.59
5.68
5.56
-4.36
-14.19
-13.34
2.02
25.7
44.77
47.1
28.87
-2.6
-32.23
-45.34
-35.25
-6.85
26.09
48.41
51.35
36.52
14.31
-2.97
-8.01
-2.55
4.36
2.78
-11.22
-32.23
-48.23
-47.85
-27.76
4.08
32.5
43.3
31.4
3.89
-23.86
-36.57
-27.33
-0.97
28.98
48.01
48.31
32.42
10.88
-4.7
-8.33
-2.82
2.48
-1.69
-18.05
-40.23
-55.78
-53.7
-31.4
2.57
32.67
44.66
33.59
6.6
-21.08
-34.36
-26.54
-2.37
25.18
42.55
42.96
29.62
12.91
3.29
4.93
13.18
17.59
8.91
-14.57
-44.89
-67.99
-71.46
-51.68
-16.58
18.2
37.49
34.6
14.55
-9.43
-23.63
-21.56
-7.14
8.75
15.27
8.41
-6.59
-18.64
-18.19
-3.28
18.58
34.28
32.85
12.01
-19.86
-47.57
-57.07
-42.78
-10.73
24.83
48.93
53.75
42.14
24.81
13.25
12.75
19.45
23.7
16.83
-2.76
-27.61
-45.16
-45.02
-25.13
6.26
34.44
46.03
35.9
9.79
-18.77
-36.31
-36.49
-23.43
-8.56
-3.4
-12.23
-29.19
-41.85
-38.72
-16.77
16.17
45.27
57.05
46.63
20.36
-7.98
-24.89
-24.16
-9.78
7.3
16.05
11.98
-0.24
-9.81
-6.84
10.94
35.99
54.55
54.64
33.16
-1.81
-35.22
-53.14
-50.08
-31.68
-10.57
1.2
-0.99
-12.11
-21.08
-18.12
-1.07
22.82
40.6
41.18
21.93
-9.16
-37.56
-49.66
-40.04
-14.4
14.06
32.11
33.78
23.13
11.1
7.97
16.84
31.29
39.28
30.81
4.3
-31.4
-61.43
-72.52
-60.14
-30.81
1.7
23.94
30.07
24.27
17.47
19.8
34.14
53.73
65.95
59.97
33.32
-5.77
-42.61
-63.68
-63.56
-47.43
-27.37
-14.95
-14.52
-21.12
-23.99
-13.78
11.21
42.97
67.88
74.09
58.32
28.05
-2.59
-20.71
-21.41
-10.46
-0.36
-2.58
-20.75
-48.25
-71.91
-79.84
-68.1
-42.77
-16.18
0.51
3.83
-0.57
-1.9
8.8
32.54
61.09
81.49
83.27
64.56
33.87
5.37
-8.61
-4.27
11.52
25.09
24
3.89
-28.72
-59.81
-76.11
-72.14
-53.08
-31.37
-18.87
-19.86
-28.9
-34.73
-27.45
-5.05
24.94
50.06
60.15
53.33
37.28
24.32
24.38
39.05
60.19
74.31
70.02
44.35
5
-33.32
-56.92
-60.03
-47.76
-32.82
-27.65
-37.05
-55.49
-70.63
-70.85
-52.44
-22.03
7.63
25.17
27.31
20.49
16.25
24.04
45.03
70.8
88.03
85.79
61.81
24.16
-12.86
-36.53
-42
-34.42
-25.32
-25.25
-37.4
-55.67
-68.18
-64.52
-41.97
-7.82
24.39
42.15
40.9
26.4
11.05
6.43
16.25
33.69
45.75
41.12
17.39
-16.6
-45.61
-56.25
-44.6
-18.2
8.72
23.63
22.63
11.86
3.22
6.13
21.69
41.72
53.42
46.97
21.37
-14.43
-46.07
-60.99
-54.69
-32.78
-7.47
9.22
11.77
3.59
-5.8
-7.31
2.02
16.53
25.49
19.75
-2.09
-31.5
-54.06
-57.18
-37.19
-2.22
31.87
49.87
45.3
23.63
-1.36
-15.5
-12.26
4.03
21.69
29.13
22.18
6.55
-6.19
-6.48
6.7
24.44
33.22
23.33
-4.58
-39
-63.25
-64.63
-41.44
-3.99
30.94
48.9
44.87
25
2.18
-11.43
-10.7
0.47
12.48
16.3
8.93
-4.86
-15.88
-16.63
-6.19
8.37
15.89
7.96
-15.55
-45.16
-66.09
-66.26
-43.07
-5.77
29.1
46.17
39.43
15.39
-10.73
-23.2
-14.39
11.26
40.39
58.52
58.03
42.1
21.75
8.68
8.07
15.86
22.01
17.51
0.58
-21.91
-38.57
-40.92
-28.86
-11.14
-0.2
-4.56
-23.59
-47.44
-62.59
-59.89
-39.7
-12.08
8.7
12.16
-2.68
-26.43
-44.34
-44.35
-23.39
10.48
42.32
58.27
52.72
31.34
7.69
-4.18
2.6
23.9
47.51
60.29
55.64
37.13
15.72
2.84
3.39
12.85
20.69
17.44
1.13
-21.04
-36.84
-36.94
-20.99
1.41
16.02
12.26
-10.36
-41.69
-65.88
-70.1
-51.13
-17.01
17.14
36.97
35.88
17.85
-5.58
-21.79
-23.56
-12.58
2.4
11.29
8.82
-2.17
-12.7
-13.68
-2
16.45
30.06
28.48
9.51
-18.5
-40.65
-43.48
-22.84
13.35
49.17
69.13
66.18
44.82
17.75
-1.84
-7.39
-1.91
5.1
4.28
-7.62
-25.43
-38.72
-38.55
-23.1
0.52
19.58
23
7.62
-19.57
-44.63
-54.09
-41.87
-12.8
19.98
42.11
45.6
32.82
14.18
1.57
1.12
9.57
17.04
13.9
-2.44
-24.87
-40.37
-38.07
-16.19
15.61
41.27
47.23
30.18
-0.89
-29.54
-40.75
-29
-0.72
29.72
48.08
47.74
32.4
12.8
-0.39
-2.72
1.82
4.12
-3.71
-22.86
-46.33
-62.42
-61.55
-41.92
-11.31
16.41
28.53
20.09
-3.44
-29.04
-42.97
-37.88
-16.56
10.02
28.99
32.84
23.44
10.32
4.33
10.66
25.11
36.52
33.97
13.97
-16.2
-41.94
-49.25
-32.72
0.82
35.92
56.82
55.83
36.99
12.91
-3.16
-4.95
3.73
12.32
10.77
-3.85
-25.15
-41.13
-41.42
-23.8
4.12
28.43
36.51
23.66
-4.42
-34.7
-53.93
-55.17
-41.02
-21.41
-7.51
-5.35
-12.4
-19.42
-16.53
0.44
26.44
49.37
56.87
43.54
14.57
-16.68
-35.82
-35.13
-17.72
4.92
19.92
20.83
11.14
1.77
3.7
20.53
45.53
65.02
66.37
45.38
9.23
-27.32
-49.87
-51.86
-37.56
-18.73
-7.42
-9
-19.62
-28.86
-26.92
-10.59
14.29
35.49
41.38
27.25
-1.6
-32.48
-51.84
-52.01
-35.16
-11.58
6.5
11.88
6.39
-0.71
0.79
15.12
36.83
53.66
53.83
33.5
0.13
-31.17
-45.38
-35.82
-7.77
24.73
46.54
49.42
35.76
16.39
3.23
2.28
10.36
17.33
12.91
-6.76
-36.01
-62.02
-71.8
-59.2
-28.73
6.25
30.65
35.39
21.89
0.76
-14.88
-16.85
-6.66
6.23
10.84
2
-15.75
-30.71
-31.27
-13.46
15.63
41.48
50.19
36.52
7.02
-23.5
-40.06
-35.45
-13.62
13.12
31.31
33.64
22.36
7.19
-1.3
1.81
12.8
21.46
17.56
-2.73
-33.76
-62.68
-76.1
-67.06
-39.02
-4.27
22.63
32.41
25.61
11.78
2.99
6.61
20.45
34.18
35.9
19.7
-9.72
-39.27
-54.33
-46.99
-20.86
11.13
34.13
39.68
30.09
16.42
10.95
19.28
36.57
50.36
48.31
25.91
-10.16
-45.34
-64.96
-62.07
-40.85
-13.79
5.6
10.22
2.55
-7.4
-8.87
3.11
24.5
44.15
50.14
36.45
6.74
-27.18
-51.54
-57.47
-45.6
-25.13
-8.12
-2.37
-6.94
-12.93
-9.54
8.81
37.87
64.98
75.99
63.35
30.97
-7.43
-35.81
-44.29
-34.37
-17.12
-5.87
-7.94
-20.31
-31.86
-30.49
-10.99
21.37
53.46
71.41
68.19
47.13
19.8
-0.91
-7.98
-3.58
2.73
0.48
-15.23
-40.34
-63.83
-73.96
-64.79
-39.59
-9.21
13.99
22.75
18.54
10.47
9.35
21.28
43.29
64.3
71.14
55.96
21.6
-19.15
-50.1
-60.19
-49.8
-30.11
-16.13
-17.62
-33.35
-52.24
-60.37
-49.83
-23.56
6.55
27.1
31.16
22.22
11.52
11
25.96
51.59
75.51
84.68
72.55
42.76
7.36
-19.81
-30.51
-25.95
-15.84
-12
-21.39
-41.88
-63.32
-73.55
-65.26
-40.4
-9.34
14.94
23.96
18.42
7.46
2.83
11.75
31.83
51.9
58.5
43.84
11.17
-26.36
-52.69
-57.43
-41.59
-16.38
3.9
10.43
4.67
-3.26
-1.45
15.76
43.81
70.13
81.17
70.02
40.4
4.6
-23.32
-34.77
-30.62
-19.86
-13.55
-18.25
-32.07
-45.73
-48.34
-33.95
-5.55
25.42
45.04
44.16
23.43
-6.78
-32.15
-41.77
-33.91
-16.45
-1.49
2.15
-5.48
-15.61
-16.52
-1.39
26.4
54.35
67.79
58.4
29.41
-5.87
-31.12
-35.71
-20.15
4.96
25.41
31.45
22.8
7.98
-1.79
-0.12
10.66
20.65
18.73
-0.31
-31.89
-63.06
-79.18
-71.66
-42.6
-4.37
26.97
39.61
31.87
12.31
-5.9
-12.41
-5.57
7.24
15.01
10.34
-5.35
-22.21
-28.13
-16.35
9.32
35.93
48.59
38.96
10.4
-23.67
-46.8
-48.41
-29.17
0.01
24.5
34.02
27.83
14.09
4.1
4.82
14.76
24.79
24.1
7.12
-22.29
-51.98
-67.82
-61.1
-33.51
3.14
33.18
45.08
37.24
18.35
1.56
-3.27
4.53
16.49
20.81
10.22
-12.75
-36.62
-47.39
-36.73
-7.43
27.85
53.21
57.95
42.06
15.37
-8.34
-19.34
-16.74
-8.23
-4.43
-12.12
-29.6
-47.21
-53.04
-39.98
-10.7
22.66
44.84
45.55
25.2
-5.15
-30.09
-38.11
-27.78
-7.8
8.85
12.88
4.17
-8.59
-13.78
-4.71
15.81
36.71
45.07
33.7
5.74
-26.63
-48.44
-49.62
-30.02
0.46
27.65
40.54
36.91
24.03
13.29
13.09
23.24
34.88
36.31
20.7
-8.8
-39.75
-56.94
-50.93
-23.52
12.96
42.15
52.29
41.91
19.64
-1.48
-11.71
-9.65
-2.34
0.08
-8.98
-27.79
-46.7
-53.83
-42.19
-14.7
16.38
35.89
34.12
12.32
-17.8
-40.66
-45.2
-30.83
-7.02
12.75
18.86
10.91
-2.78
-10.66
-5.61
10.68
28.21
34.65
22.62
-5.58
-38.6
-61.98
-65.49
-48.53
-20.32
5.79
19.75
20.24
14.89
14.85
27.34
50.53
73.94
84.34
73.46
43.17
4.99
-25.78
-37.89
-29.72
-9.62
9.41
17.02
11.11
-1.55
-10.17
-7.09
7.1
23.31
29.58
18.51
-7.45
-36.46
-53.49
-48.52
-22.27
13.89
43.97
55.82
47.02
25.31
3.32
-9.07
-9.94
-5.75
-6.25
-17.9
-39.03
-59.99
-68.64
-57.41
-28.53
6.2
31.38
36.26
20.55
-5.46
-27.08
-33.29
-22.7
-3.78
11.01
12.73
1.37
-14.28
-22.25
-14.86
6.21
30.31
43.79
37.75
13.35
-18.34
-42.17
-46.78
-30.59
-2.37
24.03
37.43
35.2
24.03
14.93
15.82
26.36
37.79
38.65
22.07
-9.28
-43.45
-65.32
-64.31
-40.35
-3.95
29.16
46.27
43.97
28.9
12.89
5.33
7.84
13.48
12.26
-2.03
-26.96
-51.77
-63.39
-53.78
-25.42
9.47
35.02
40.13
24.37
-2.09
-24.14
-30.02
-17.34
5.95
26.82
34.77
27.61
12.37
0.32
-0.21
10.55
23.77
27.41
13.67
-15.67
-49.31
-72.14
-73.23
-51.76
-17.59
14.21
31.53
31.33
20.56
10.96
11.39
22.17
34.65
36.88
21.15
-10.56
-46.66
-71.9
-75.13
-55.46
-22.45
9.23
27.83
30.5
23.85
19.13
24.38
39.4
55.1
59.29
44.19
11.78
-26.33
-54.86
-62.53
-48.15
-20.73
5.79
20.4
20.8
13.98
11.28
20.8
42.18
65.87
78.52
70.56
42.08
3.35
-30.63
-47.98
-46.12
-32.56
-19.67
-17.14
-26.08
-38.54
-42.57
-29.94
-1.63
31.88
55.95
59.81
42.5
13.32
-13.63
-27.48
-26.26
-17.62
-13.24
-21.36
-41.34
-63.36
-74.06
-64.22
-34.52
4.34
37.02
51.74
46.27
28.65
11.94
6.21
12.85
23.88
27.53
15.8
-10.05
-39.46
-58.44
-57.11
-35.54
-3.68
24.27
37.47
34.28
22.55
14.52
19.07
36.23
56.45
66.17
55.67
25.09
-14.91
-48.82
-64.7
-60.29
-43.73
-27.99
-22.95
-29.72
-40.45
-43.47
-30.68
-2.77
30.55
55.74
62.68
50.44
27.97
8.93
4.17
15.33
33.66
45.2
38.81
12.92
-23.17
-54.44
-68.72
-63.14
-45.26
-27.8
-20.77
-25.67
-35.12
-37.84
-25.85
0.39
31.76
55.57
62.62
52.55
34.27
20.69
21.67
37.84
59.69
72.77
65.58
36.41
-5.1
-42.9
-63.46
-62.81
-48.51
-34.7
-33.37
-47.47
-69.31
-85.41
-84.77
-65.3
-34.97
-6.68
9.3
11.28
6.47
5.86
17.3
40.34
66.13
82.73
81.97
64.31
39.06
19.25
14.51
25.68
43.97
55.72
49.97
24.77
-11.24
-43.04
-57.67
-51.26
-31.29
-12.07
-6.22
-17.29
-37.8
-54.26
-55.25
-38.44
-11.74
11.89
22.27
18.01
7.01
1.21
9.12
30.51
55.74
71
65.97
39.75
2.04
-31.85
-49.09
-46.11
-30.27
-15.07
-11.88
-23.07
-40.71
-51.61
-45.36
-20.99
12.18
39.81
50.56
42.17
22.45
4.29
-2.09
5.17
18.42
25.39
16.63
-8.48
-40.55
-65.05
-69.94
-52.26
-19.99
12.64
33.02
36.84
29.77
23.17
26.44
40.87
58.48
66.65
55.83
25.5
-14.64
-49.6
-66.67
-61.82
-41.53
-18.5
-4.42
-3.4
-10.33
-14.54
-7.28
12.3
35.6
49.42
43.81
18.4
-16.36
-44.89
-54.63
-42.73
-17.42
7.28
19.48
15.92
3.1
-7.08
-5.2
9.98
30.24
42.62
36.95
12.19
-22.22
-51.11
-61.21
-48.29
-19.4
11.4
30.83
33.51
24.18
13.98
12.69
22.56
36.53
42.77
32.2
4.52
-30.53
-58.1
-65.75
-50.14
-18.87
13.78
34.5
37.9
28.64
17.77
15.13
23.12
34.95
39.18
27.2
-0.66
-34.16
-58.35
-61.64
-42.26
-9.46
21.35
36.87
32.65
14.75
-4.31
-13.37
-8.87
3.22
11.66
7.2
-11.14
-34.67
-49.83
-45.95
-21.94
12.34
41.07
50.9
37.98
9.75
-19.49
-36.44
-35.65
-21.84
-6.17
0.74
-4.71
-17.11
-25.58
-20.92
-1.93
23.02
40.43
39.67
19.56
-10.29
-34.51
-40.24
-24.22
5.56
34.62
50.01
47.15
31.66
15.22
7.9
12.17
21.46
24.61
13.2
-12.45
-42.31
-61.84
-60
-36.07
-0.73
29.4
40.69
29.68
4.54
-20.14
-31.73
-26.39
-10.57
3.81
6.84
-3.38
-19.54
-29.63
-24.34
-3.07
24.96
45.37
46.55
26.39
-6.16
-35.63
-48.09
-38.55
-13.45
13.6
29.57
29.28
17.71
6.16
4.5
14.87
29.92
37.41
27.93
1.09
-33.15
-59.37
-64.67
-45.69
-10.58
25.33
47.59
50.1
37.47
21.23
12.15
13.73
20.29
21.3
8.72
-17.19
-46.8
-66.07
-64.4
-40.8
-5.14
26.77
41.42
34.52
12.84
-10.02
-21.51
-16.89
-1.58
12.98
16.6
6.77
-9.63
-20.64
-16.86
2.46
28.15
45.99
44.86
23.01
-10.54
-40.71
-54.14
-46.06
-22.44
3.86
20.35
21.83
12.72
3.59
3.87
15.55
31.42
39.5
30.64
4.73
-28.18
-52.99
-57.63
-39.64
-7.75
22.94
38.99
35.57
18.37
-0.19
-8.8
-3.72
9.2
18.51
14.53
-4.23
-29.31
-46.87
-45.48
-22.99
11.65
42.95
57.17
49.38
25.65
-0.86
-17.66
-19.56
-11.04
-2.49
-3.4
-16.02
-33.67
-44.58
-39.23
-16.89
13.06
35.71
39
20.62
-10.56
-39.39
-52.76
-46.4
-26.83
-6.56
3.32
-0.35
-11.32
-18.08
-11.24
10.26
37.9
57.83
58.75
38.43
5.49
-25.08
-39.95
-34.39
-14.6
6.65
17.65
14.55
3.16
-5.11
-0.82
17.29
40.76
56.04
52.33
27.96
-7.92
-40.14
-55.28
-48.68
-26.65
-2.3
12.06
11.9
2.4
-5.32
-1.84
14.51
35.78
49.07
44.25
20.13
-14.05
-43.51
-55.42
-45.73
-21.01
5.62
21.92
23.28
14.64
6.96
9.66
24.77
44.82
57
50.84
24.59
-12.88
-46.74
-63.78
-59.41
-39.82
-17.78
-5.22
-6.25
-15.39
-21.27
-14.46
6.34
32.7
50.92
49.99
28.12
-5.66
-36.43
-50.99
-44.74
-23.73
-0.45
13.33
13.21
4.13
-3.29
-0.24
14.42
32.81
42.52
34.35
8.38
-25.12
-50.85
-56.64
-39.98
-9.51
19.98
35.59
33
18.14
3
-2.05
5.49
18.91
26.79
20.3
-0.78
-26.99
-44.3
-41.85
-18.43
16.24
46.44
58.79
49.06
23.89
-3.37
-20.44
-22.63
-14.85
-7.62
-10.14
-24.16
-42.43
-52.89
-46.06
-21.38
11.43
37.14
43.35
27.37
-2.22
-30.4
-43.85
-37.87
-18.59
1.63
11.5
7.39
-4.84
-13.98
-10.79
5.79
27.57
41.63
38.1
16.4
-13.87
-37.8
-43.29
-27.59
1.19
28.88
43.11
39.9
25.24
10.82
6.52
14.26
26.78
32.39
22.31
-3.26
-34.16
-55.46
-55.61
-33.08
2.17
33.71
47.41
38.59
14.06
-12.31
-27.48
-26.22
-13.33
0.3
4.67
-3.01
-16.59
-25.11
-19.92
-0.88
22.89
37.8
33.95
11.33
-19.49
-42.84
-46.44
-28
3.34
32.48
46.44
41.2
23.29
5.28
-2.06
3.92
16.36
23.48
16.09
-6.21
-33.96
-52.88
-51.8
-29.19
5.47
36.82
51.84
46.64
27.85
8.2
-1.58
1.13
9.56
12.49
1.57
-22.7
-50.33
-67.12
-62.42
-35.7
2.65
36.42
52.2
46.18
25.44
3.24
-9.14
-8.57
-1.34
1.82
-7.01
-27.44
-50.08
-61.89
-53.55
-25.52
11.51
41.81
52.85
41.86
17.02
-7.4
-19.26
-14.95
-0.98
10.83
11.03
-1.55
-18.77
-28.25
-21.02
2.57
32.28
53.38
54.75
35.08
3.67
-24.7
-37.96
-33.1
-17.36
-3.2
-0.58
-10.81
-25.78
-33.12
-23.83
1.89
34.05
58.23
63.49
48.2
20.82
-4.97
-18.07
-15.87
-5.34
1.77
-3.81
-22.75
-46.3
-61.1
-56.85
-32.56
2.34
33
47.31
42.29
25.22
8.76
2.97
9.43
20.27
23.43
10.29
-18.45
-52.3
-76.44
-79.5
-59.92
-26.65
5.94
26.02
30.56
26.09
23.99
32.94
53.26
75.99
87.97
79.44
49.87
9.11
-27.76
-48.13
-48.31
-34.89
-20.17
-14.62
-20.71
-31.8
-36.5
-26.18
-0.69
30.7
54.2
59.29
44.75
19.61
-2.23
-9.89
-1.7
13.57
22.16
13.42
-13.7
-49.42
-78.52
-88.73
-77.45
-52.61
-27.7
-13.46
-11.91
-15.93
-14.39
0.35
27.27
56.66
75.77
75.92
57.69
30.9
9.17
2.67
12.37
29.35
39.92
33.33
8.06
-26.84
-56.65
-69.13
-61.15
-40.02
-18.83
-8.24
-10.39
-18.14
-20.08
-8.04
17.22
45.84
64.32
63.07
42.21
11.83
-13.38
-22.19
-13.15
4.66
17.11
13.36
-7.62
-36.24
-57.94
-61.65
-45.96
-19.82
3.37
13.73
10.42
1.71
-0.74
10.88
35.2
61.97
77.55
72.37
46.73
11.01
-19.66
-33.66
-29.06
-14.46
-3.42
-6.18
-23.39
-45.72
-59.58
-55.28
-32.99
-2.85
21.11
28.9
20.13
3.94
-6.92
-3.84
12.18
31.01
39.37
28.87
1.39
-31.27
-53.84
-55.77
-37.03
-8.01
16.84
26.99
21.44
8.59
0.54
5.42
22.09
40.55
47.9
35.99
6.81
-28.01
-53.29
-58.35
-42.79
-16.44
6.65
16.33
11.76
1.27
-3.59
4.44
23.31
42.36
48.62
34.45
2.52
-35
-62.67
-69.58
-55.02
-28.26
-3.01
10.45
10.63
4.92
4
14.41
34
52.33
57.17
41.84
9.95
-25.8
-50.06
-52.59
-33.75
-3.82
22.77
35.32
32.29
21.35
13.75
16.7
28.76
40.32
39.93
21.84
-9.57
-41.24
-58.39
-52.47
-26.25
7.57
33.22
40.19
28.42
7.6
-9.19
-13.26
-5.11
6.48
10.52
1.14
-18.21
-36.39
-41.07
-26.23
3.66
35.3
53.75
50.38
27.36
-3.64
-28.23
-36.99
-30.21
-16.85
-8.45
-11.91
-24.94
-37.55
-38.18
-21.35
8.47
38.34
53.95
47.6
22.38
-9.35
-33.08
-39.66
-30.01
-13.53
-1.85
-1.79
-11.02
-19.87
-17.4
1.36
31.63
60.6
74.28
65.29
37.03
2.09
-24.98
-35.21
-29.7
-18.01
-11.61
-16.74
-30.42
-42.43
-41.63
-23.26
7.46
37.45
52.76
46.29
21.84
-7.83
-28.36
-31.44
-19.22
-2.28
7.27
3.29
-10.63
-23.42
-23.59
-6.42
22.39
49.45
61.02
50.55
22.46
-10.19
-33.03
-37.98
-27.32
-11.52
-2.47
-6.03
-18.48
-28.9
-26.29
-6.63
23.76
51.14
62.02
50.56
21.89
-10.6
-32.75
-36.9
-25.77
-9.85
-0.84
-4.41
-16.8
-27.21
-24.83
-5.85
23.39
49.12
57.93
44.23
13.59
-20.19
-42.75
-46.62
-35.03
-18.81
-9.63
-12.65
-23.43
-30.94
-24.64
-1.72
30.55
57.93
67.3
53.92
24.18
-7.89
-28.59
-31.62
-21.2
-8.38
-3.97
-11.79
-26.12
-35.51
-29.65
-6.22
27.18
56.47
68.75
59.22
33.7
5.37
-13.16
-16.46
-9.23
-2.57
-6.63
-23.98
-47.31
-63.66
-61.58
-38.42
-2.13
32.63
52.42
52.12
37.16
19.78
11.07
14.55
24.16
28.53
18.61
-6.14
-36.4
-57.81
-58.97
-38.03
-4.31
26.67
41.37
35.28
14.74
-7.13
-18.54
-15.48
-3.58
6.01
4.01
-10.9
-30.81
-43.12
-38.18
-15.35
15.7
40.17
46.03
30.66
2.28
-24.61
-36.96
-30.07
-9.57
12.36
24.25
21.97
10.66
1
1.79
14.19
30.25
37.69
27.66
0.55
-33.09
-57.97
-61.89
-42.54
-8.67
24.6
43.91
44.61
32.38
19.07
14.67
21.32
31.85
34.78
21.97
-5.54
-36.9
-57.26
-55.96
-32.84
1.04
29.37
39.2
27.74
3.34
-19.75
-29.67
-23.4
-7.83
5.1
6.09
-5.67
-21.89
-30.61
-23.92
-3.26
20.56
33.64
27.02
2.16
-29.35
-51.79
-53.47
-32.98
0.43
32.03
49.54
49.48
38.01
26.21
22.59
27.81
34.18
31.25
13.04
-17.18
-47.31
-62.98
-55.46
-27.19
8.96
36.3
43.11
28.65
3.1
-18.46
-24.55
-13.16
7.67
25.29
30.14
21.22
6.25
-3.78
-1.81
10.28
22.54
23.13
5.78
-25.47
-57.61
-75.16
-68.57
-39.62
-0.79
31.17
44.04
35.97
15.65
-3.67
-11.86
-7.43
2.3
6.92
-0.13
-16.91
-33.69
-39.04
-26.97
-1.6
24.64
37.53
29.37
3.68
-26.41
-45.05
-42.29
-19.19
12.66
38.21
46.94
38.42
21.65
8.75
7.46
16.16
25.48
24.34
7.53
-20.28
-46.53
-57.52
-46.36
-16.94
17.44
41.54
46.04
32.24
10.76
-5.37
-8.23
0.18
10.01
9.82
-5.86
-32.51
-57.88
-68.62
-58.13
-30.28
2.27
25.44
31.32
22.26
9.11
4.17
14.06
34.87
54.58
59.67
43.12
9.22
-28.48
-54.36
-59.45
-45.76
-25.07
-11.11
-11.48
-23.49
-36.22
-37.85
-22.94
3.71
30.41
45.32
43.7
30.77
18.31
17.87
33.45
58.97
80.78
85.47
67.12
31.18
-8.15
-35.81
-43.62
-34.87
-21.46
-16.54
-26.37
-46.82
-66.02
-71.88
-59.61
-34.18
-7.59
8.64
10.06
1.75
-5.25
-0.76
18.29
45.04
66.7
71.25
54.46
22.85
-9.53
-28.81
-28.83
-14.22
2.1
7.22
-4.33
-27.33
-49.02
-56.83
-45.74
-21.3
4.29
19.27
19.43
10.26
3.2
8.52
28.54
55.81
76.61
78.69
58.13
22.13
-14.71
-38.39
-42.83
-33.24
-22.08
-21.36
-35.1
-56.88
-73.62
-73.56
-53.46
-20.39
11.99
31.45
33.79
24.83
16.24
18.31
33.66
54.88
69.03
64.85
39.64
1.61
-34.25
-54.12
-52.82
-36.04
-16.77
-7.12
-11.29
-23.61
-32.36
-27.54
-7.15
20.95
43.89
51.07
40.53
20.37
3.84
1.88
16.3
38.46
53.93
50.69
26.26
-10.46
-44
-61.15
-57.85
-41.25
-24.58
-18.79
-26.05
-38.64
-44.19
-33.32
-5.94
28.28
55.06
63.24
51.17
27.49
6.26
-1.26
7.18
23.42
33.89
27.96
4.27
-27.91
-54
-62.24
-50.23
-26.03
-2.92
8.4
5.96
-2.89
-6.34
4.17
28.21
55.84
72.88
68.89
43.34
6.43
-26.53
-43.54
-42.12
-30.31
-20.92
-23.55
-38.62
-57.1
-66.02
-56.3
-28.51
7.1
36.11
47.8
40.96
24.16
10.21
8.38
18.85
32.49
36.9
24.12
-3.88
-35.66
-56.56
-56.82
-37.18
-8.31
15.43
23.93
16.74
2.69
-5.74
-0.27
18.05
38.94
48.96
39.31
11.45
-23.07
-48.92
-55.18
-41.34
-17.1
3.71
11.39
5.74
-4.52
-7.64
3.34
25.89
48.86
58.82
47.66
17.65
-19.44
-48.44
-58.45
-48.36
-26.95
-7.08
1.83
-0.77
-6.71
-4.86
11.24
38.52
65.21
77.37
66.94
36.63
-1.17
-31.04
-42.37
-34.68
-16.88
-1.47
2.83
-3.95
-13.59
-15.45
-3.6
18.75
40.27
48.05
35.33
6.05
-26.66
-47.49
-47.15
-27.34
0.59
22.38
28.86
20.59
6.73
-1.41
2.33
14.97
26.09
24.5
5.33
-25.99
-55.87
-69.67
-59.56
-29.34
7.28
33.94
40.27
27.06
5.1
-11.67
-14.19
-3.3
11.72
19.5
13.84
-2.29
-18.62
-24.32
-14.82
4.71
21.9
24.47
7.58
-22.59
-51.65
-64.48
-53.39
-22.54
14.17
40.67
47.15
34.97
14.82
-0.33
-3.11
4.24
12.11
10.37
-4.75
-27.6
-46.19
-49.11
-32.19
-1.45
29.8
48.07
46.71
29.12
6.71
-8.16
-8.92
1.47
12.88
14.54
2.09
-19.06
-36.73
-38.8
-20.74
11.13
42.85
60.4
57.26
37.71
13.96
-1.55
-3.17
4.93
11.81
7.07
-12.41
-39.7
-61.47
-65.31
-47.14
-13.92
19.78
39.65
39.49
24.01
5.52
-4.06
-0.24
11.34
19.18
13.31
-8.03
-36.46
-58.06
-61.02
-42.41
-10.1
21.28
38.21
35.3
17.64
-2.27
-12.4
-7.86
6.29
18.49
18.03
2.01
-22.18
-41.04
-42.48
-23.22
8.9
39.28
54.61
50.06
31.57
11.97
2.74
7.54
19.92
27.52
19.8
-5.28
-39.37
-67.97
-78.15
-65.72
-37.4
-6.89
13.07
17.74
12.4
8.37
15.54
35.63
60.53
76.75
73.19
47.78
9.19
-27.65
-49.65
-52.09
-40.76
-27.64
-23.4
-30.96
-43.91
-50.45
-40.89
-13.91
21.85
52.04
64.37
55.46
32.61
9.38
-2.38
0.73
11.9
18.83
11.52
-11.38
-41.1
-63.73
-68.04
-51.86
-23.31
3.94
18.31
16.62
5.29
-3.91
-1.51
13.72
33.63
45.52
39.9
16.56
-14.51
-38.58
-44.16
-29.53
-3.43
20.35
30.84
25.93
12.99
3.95
7.72
24.67
45.83
57.92
50.88
23.9
-13.45
-46.18
-61.71
