2583425985
64
0
0
0
0
0
0
0
0
0
0
0
0.01
0.01
0
-0.03
-0.05
-0.05
0
0.13
0.36
0.66
1.01
1.37
1.72
2.06
2.4
2.79
3.24
3.8
4.42
5.06
5.66
6.2
6.68
7.15
7.69
8.34
9.19
10.17
11.17
12.08
12.86
13.55
14.31
15.37
16.86
19.01
21.61
24.39
27.07
29.46
31.65
33.94
36.76
40.41
45.28
51.02
57.1
62.96
68.26
73.07
77.86
83.34
90.01
98.42
108.05
118.13
127.79
136.48
144.24
151.69
160.12
168.23
178.26
190.81
205.98
222.63
237.88
247.41
246.53
231.82
202.35
160.48
110.02
55.31
-0.34
-55.3
-109.3
-162.52
-214.76
-265.24
-312.54
-355.76
-394.2
-427.17
-453.82
-472.91
-483.1
-483.2
-472.73
-452.05
-422.82
-388.24
-351.42
-314.94
-280.5
-249.02
-220.59
-194.92
-171.4
-149.64
-129.24
-109.68
-90.35
-69.85
-47.21
-21.79
6.57
37.62
70.56
104.35
137.93
170.28
200.51
227.74
251.32
270.9
286.51
298.27
306.5
311.66
314
313.47
309.61
301.81
289.51
272.62
251.21
225.59
196.18
163.38
127.41
88.3
46.14
1.28
-44.54
-89.82
-133.25
-174.03
-211.78
-246.5
-278.37
-307.51
-334.14
-358.89
-383.46
-409.79
-438.19
-465.94
-486.61
-491.57
-472.98
-428.16
-358.22
-268.38
-165.78
-57.63
49.36
148.45
232.3
293.57
327.49
334.77
321.94
299.21
276.46
259.55
249.08
241.93
234.2
223.63
210.49
196.23
182.12
168.44
154.72
140.41
125.46
110.38
96.2
83.89
73.77
65.46
58.11
50.83
43.12
35.06
27.14
20.08
14.46
10.39
7.68
5.67
3.73
1.56
-0.77
-2.95
-4.62
-5.56
-5.8
-5.55
-5.01
-4.33
-3.41
-2.14
-0.45
1.52
3.46
5.11
6.39
7.62
9.29
12.01
16.02
20.96
25.93
29.82
31.83
32
31.32
31.2
33.01
37.27
43.09
48.39
50.68
48.06
40.07
28.04
14.13
0.57
-11.36
-22.03
-33.19
-47.14
-65.79
-89.94
-118.09
-147.77
-174.63
-192.72
-196.03
-180.67
-147.16
-101.75
-55.61
-20.3
-4.38
-9.74
-30.52
-56.39
-76.8
-85.07
-80.17
-65.31
-44.93
-21.85
2.46
28.17
54.97
80.71
101.51
113.46
114.92
107.77
96.29
85.24
78.36
76.22
76.27
74.1
65.19
46.59
17.8
-18.94
-59.13
-96.27
-123.36
-134.47
-125.84
-99.27
-61.25
-21.95
9.28
25.54
24.94
11.11
-8.56
-25.87
-35.02
-33.69
-23.57
-8.41
8.12
24.01
38.95
53.19
66.43
76.9
82.58
82.3
76.85
68.76
61.58
58.22
59.65
64.73
70.59
74.02
72.73
66.08
54.49
38.83
20.2
-0.15
-19.92
-35.74
-43.89
-42.14
-31.14
-14.5
1.6
11.97
14.4
10.14
2.54
-5.06
-11.01
-15.39
-19.03
-22.43
-24.99
-25.57
-23.48
-19.15
-14.03
-9.82
-7.89
-8.39
-10.47
-12.64
-13.51
-12.44
-9.73
-6.38
-3.59
-2.23
-2.45
-3.77
-5.3
-6.19
-6.03
-4.99
-3.63
-2.63
-2.5
-3.32
-4.85
-6.65
-8.28
-9.56
-10.55
-11.51
-12.78
-14.56
-16.91
-19.74
-22.89
-26.22
-29.65
-33.2
-36.95
-41
-45.42
-50.22
-55.43
-61.04
-67.03
-73.34
-79.95
-86.8
-93.83
-100.9
-107.72
-113.87
-118.83
-122.02
-122.82
-120.72
-115.37
-106.64
-94.82
-80.13
-62.97
-43.93
-23.74
-3.27
16.55
34.8
50.7
63.67
73.5
80.33
84.58
86.86
87.75
87.69
86.84
85.11
82.4
78.76
74.55
70.43
67.19
65.38
65
65.52
65.99
65.52
63.71
60.84
57.84
55.81
55.46
56.71
58.66
60.01
59.86
58.25
56.19
55.31
57
61.78
69.3
78.96
90.4
103.44
117.25
129.5
136.3
133.58
119.16
94.41
64.1
34.25
9.22
-10.26
-26.62
-43.07
-60.78
-77.67
-89.55
-92.98
-87.78
-77.54
-67.82
-63.28
-65.07
-70.49
-74.58
-73.16
-65.24
-53.48
-42.53
-36.25
-35.41
-37.14
-36.69
-30.45
-18.4
-4.67
4.54
4.38
-5.7
-21.33
-35.25
-41.06
-36.44
-24.29
-10.89
-2.45
-1.74
-6.87
-12.7
-14.1
-9
0.44
9.27
12.74
9.2
1.08
-6.57
-9.21
-5.49
1.81
7.46
7.03
-0.4
-11.54
-20.64
-22.81
-16.7
-5.17
6.28
12.58
11.88
6.31
0.57
-0.96
3.08
10.17
15.49
14.73
6.81
-5.33
-16.17
-20.62
-16.8
-7.11
3.1
8.57
6.98
0.17
-7.09
-9.96
-6.24
2.36
11.37
16.13
14.61
8.52
2.19
-0.14
2.9
8.92
13.19
11.55
3.13
-8.88
-18.9
-22.04
-16.85
-6.23
4.17
9.06
6.39
-1.6
-9.68
-12.72
-8.46
1.13
11.06
16.22
14.22
6.75
-1.48
-5.62
-3.55
2.88
9
10.23
4.9
-4.72
-13.63
-17.02
-12.98
-3.53
6.58
12.46
11.86
6.24
-0.14
-2.82
0.2
7.17
13.64
15.11
9.77
-0.24
-9.92
-14.24
-11
-2.2
7.05
11.53
8.87
0.84
-7.75
-11.93
-9.45
-1.93
6.16
10.17
7.96
1.15
-5.83
-8.31
-4.09
5.17
14.89
20.08
18.1
10.07
0.11
-6.97
-8.27
-4.13
2.36
7.42
8.85
7.09
4.61
3.96
5.77
8.16
7.64
1.55
-9.89
-22.72
-30.75
-28.53
-14.53
7.45
29.49
43.02
42.75
29.06
7.67
-13.24
-26.6
-29.24
-22.38
-9.99
3.75
16.45
27.97
39.1
49.86
58.36
61.36
56.13
42.48
23.6
4.8
-9.24
-16.85
-20.12
-23.15
-28.98
-37.07
-42.96
-40.59
-25.91
0.11
31.09
57.42
70.35
65.73
45.78
18.06
-7.91
-24.66
-29.51
-24.99
-16.63
-9.84
-7.26
-8.24
-10.27
-11.39
-11.8
-13.68
-19.36
-29.16
-40.33
-48.04
-48.07
-39.49
-25.77
-13.32
-8.3
-13.04
-24.48
-35.43
-38.25
-29.09
-10.33
10.35
23.91
24.71
13.64
-2.25
-13.49
-13.03
-0.01
19.68
36.02
39.51
25.07
-5.86
-46.19
-86.03
-116.03
-129.55
-123.56
-98.29
-56.74
-4.6
49.84
96.49
125.69
131.43
113.99
80.35
41.62
8.47
-13.04
-23.07
-26.38
-28.84
-33.86
-41.21
-48.21
-52.14
-52.17
-49.83
-47.76
-47.96
-50.39
-52.34
-49.46
-37.82
-16.2
12.39
40.96
61.39
68.06
60.75
44.88
28.68
18.8
16.96
19.49
20.16
14.45
2.47
-11.15
-20.16
-20.58
-13.04
-2.35
4.91
3.65
-7.47
-25.65
-45.52
-61.49
-70.13
-71.49
-68.99
-67.66
-71.55
-81.21
-92.71
-99.23
-94.33
-75.38
-45.2
-11
19.09
39.63
49.79
52.75
52.47
50.64
45.25
31.96
7.64
-25.88
-60.29
-82.53
-79.97
-46.8
12.28
82.99
147.26
190.84
209.14
207.96
198.18
190.97
192.26
201.1
211.87
218.72
218.85
213.65
206.56
200.47
195.98
190.81
181.59
165.88
143.53
116.43
88.94
63.97
42.89
25.55
10.33
-4.77
-21.16
-39.14
-59.15
-81.94
-109.07
-141.75
-179.48
-219.2
-255.37
-281.98
-290.79
-279.46
-252.05
-217.46
-185.19
-161.43
-147.4
-140.16
-135.42
-130.04
-123.78
-118.04
-114.27
-112.7
-112.5
-112.36
-111.04
-107.55
-100.8
-89.48
-71.65
-46.76
-15.1
20.15
53
76.87
87.49
85.64
76.75
69.18
70.54
84.58
109.74
140.44
170.27
194.31
210.66
219.07
219.8
212.94
198.47
177.33
150.23
117.88
80.33
37.27
-11.94
-66.5
-122.54
-172.78
-208.52
-223.18
-213.16
-184.33
-145.87
-107.94
-78.92
-63.63
-63.3
-75.88
-96.78
-119.06
-134.87
-136.61
-120.05
-86.22
-41.72
3.39
39.55
60.56
66
60.54
52.07
47.88
52.13
64.45
80.05
91.37
90.94
74.46
42.59
1.27
-40.49
-73.63
-91.67
-92.02
-76
-48.3
-15.98
12.57
29.34
29.12
12.27
-14.14
-38.52
-49.94
-44.04
-25.71
-7.08
-1.24
-15.67
-48.65
-90.42
-127.81
-149.39
-148.65
-124.79
-81.51
-25.57
34.34
89.19
131.31
156.29
164.21
159.26
148.09
136.32
128.37
126.39
130.44
139.03
149.81
159.96
166.65
167.6
161.78
150.03
134.57
118.4
104.14
93.17
85.26
78.94
72.4
64.28
54.38
43.33
32.42
22.85
15.1
8.77
2.62
-4.8
-14.63
-26.62
-40.82
-56.67
-73.23
-89.34
-104.07
-116.67
-126.49
-133
-135.79
-134.8
-130.18
-122.33
-111.78
-98.55
-83.29
-66.54
-48.75
-30.29
-11.82
5.79
21.54
34.7
44.98
52.67
58.71
64.32
70.39
76.96
83.2
87.68
89.25
87.38
82.42
75.68
68.56
62.08
56.09
49.54
40.15
25.86
5.08
-23.01
-57.83
-96.86
-135.28
-165.44
-180.85
-178.17
-158.84
-129.37
-98.85
-75.16
-62
-58.09
-59.07
-60.66
-60.94
-60.6
-61.74
-65.66
-71.38
-76.12
-76.64
-70.78
-58.18
-39.9
-17.02
8.68
34.43
56.27
69.85
72.03
62.78
45.65
26.51
12.18
6.58
9.6
18.07
28.04
36.9
44.08
50.03
55
58.38
58.85
55.53
48.96
40.96
33.78
29.24
27.76
28.46
29.65
29.54
27.15
22.69
17.47
12.88
10.03
9.25
10
11.27
11.96
11.45
9.77
7.55
5.56
4.44
4.42
5.2
6.3
7.18
7.58
7.6
7.56
7.78
8.46
9.53
10.73
11.77
12.5
13.07
13.78
15.01
16.87
19.21
21.6
23.54
24.7
25.16
25.37
26.04
27.75
30.56
34.05
37.38
39.6
40
38.42
35.22
30.95
25.83
19.73
12.01
2.09
-10.25
-24.85
-41.54
-60.43
-81.7
-104.02
-124.98
-140.03
-144.15
-134.06
-110.49
-78.46
-45.79
-19.96
-4.8
-0.29
-3.05
-8.64
-13.38
-15.24
-13.19
-6.27
6.12
23.62
43.04
58.44
62.46
49.65
19.09
-23.8
-68.43
-102.61
-117.16
-109.66
-84.34
-52.24
-24.89
-10.17
-10.14
-21.6
-38.58
-55.01
-66.7
-71.6
-69.28
-60.45
-47.32
-33.31
-23.52
-22.96
-34.38
-56.25
-82.43
-103.48
-109.65
-95.08
-60.23
-11.82
39.77
84.25
114.75
129.48
131.55
125.55
116.04
105.98
96.46
87.61
79.65
73.21
68.95
66.86
65.84
64.34
61.09
55.55
48.45
41.28
35.61
32.32
31.24
31.28
31.06
29.49
26.24
21.83
17.34
13.85
11.97
11.61
12.09
12.51
12.23
11.04
9.21
7.3
5.87
5.24
5.37
5.93
6.55
6.97
7.1
7.08
7.09
7.27
7.64
8.11
8.53
8.8
9.06
9.47
10.18
11.2
12.3
13.13
13.33
13
12.06
10.97
10.35
10.68
12.02
14.03
16.01
17.29
17.47
16.65
15.48
14.66
14.75
15.67
16.85
17.39
16.77
14.68
11.53
8.22
5.52
4.29
5.3
9.45
17.34
28.27
39.3
45.57
41.88
24.94
-4.07
-39.66
-73.53
-98.03
-108.63
-106.43
-96.5
-84.79
-76.24
-71.9
-71.98
-76.54
-85.92
-99.69
-115.4
-128.05
-130.36
-118.92
-94.15
-61.73
-29.87
-5.84
7.02
10
7.5
4.28
2.96
4.39
7.21
10.59
14.93
21.56
31.62
44.91
59.71
73.23
83.11
87.64
86.96
82.78
77.54
73.42
71.03
69.25
64.21
55.38
42.5
26.91
11.31
-1.08
-7.36
-5.61
3.5
18.1
35.22
50.24
58.01
54.38
36.32
7.33
-25.85
-55.48
-75.9
-85.35
-86.41
-83.62
-81.03
-80.68
-82.04
-83.32
-81.97
-75.02
-60.08
-36.48
-6
27.13
57.58
81.77
98.75
110.21
118.26
122.79
120.44
106.53
78.68
39.54
-3
-39.35
-62.4
-70.71
-68.14
-61.37
-56.32
-55.31
-57.38
-60.11
-62.21
-64.18
-67.05
-70.57
-71.99
-67.34
-53.66
-31.25
-4.17
21.15
38.84
45.78
43.32
35.52
26.77
20.32
16.64
15.17
15.1
16
17.83
20.48
23.29
24.89
24.68
22.17
17.78
12.48
7.44
3.66
1.58
0.91
0.94
0.88
0.12
-1.38
-3.22
-4.8
-5.62
-5.4
-4.48
-3.41
-2.72
-2.76
-3.5
-4.6
-5.61
-6.16
-6.11
-5.64
-5.07
-4.72
-4.81
-5.26
-5.84
-6.26
-6.3
-5.95
-5.41
-4.95
-4.84
-5.13
-5.67
-6.12
-6.08
-5.28
-3.65
-1.42
1.2
3.8
6.22
8.59
11.26
14.59
18.75
23.55
28.46
32.82
36.1
38.08
38.95
39.18
39.34
39.96
41.53
44.4
48.53
53.06
56.22
55.7
49.54
37.22
20.11
1.25
-15.83
-28.49
-35.75
-38.32
-37.76
-35.61
-32.84
-29.87
-26.96
-24.5
-22.94
-22.47
-22.78
-23.07
-22.46
-20.4
-16.92
-12.68
-8.59
-5.52
-3.95
-3.85
-4.75
-5.92
-6.66
-6.49
-5.3
-3.34
-1.11
0.87
2.11
2.41
1.85
0.75
-0.53
-1.7
-2.64
-3.38
-3.82
-3.88
-3.51
-2.67
-1.41
0.09
1.55
2.72
3.45
3.78
3.87
3.85
3.78
3.55
2.94
1.76
-0.13
-2.76
-6.15
-10.3
-15.03
-19.91
-24.15
-26.85
-27.27
-25.26
-21.35
-16.55
-12
-8.49
-6.25
-5.17
-5
-5.6
-6.91
-8.81
-10.94
-12.7
-13.51
-13.07
-11.5
-9.32
-7.17
-5.54
-4.6
-4.25
-4.2
-4.11
-3.66
-2.54
-0.47
2.67
6.83
11.69
16.7
21.17
24.43
25.94
25.42
22.98
19.08
14.54
10.27
7.08
5.37
5
5.35
5.65
5.32
4.25
2.83
1.63
1.11
1.28
1.78
2.12
2.03
1.65
1.42
1.76
2.76
4.04
4.98
4.96
3.77
1.62
-0.95
-3.4
-5.3
-6.45
-6.85
-6.56
-5.73
-4.45
-2.85
-1.08
0.64
2.09
3.16
3.86
4.38
4.9
5.61
6.57
7.57
8.18
8
6.81
4.66
1.96
-0.79
-2.91
-3.93
-3.83
-3.12
-2.34
-1.71
-1.04
0.32
2.84
6.79
11.77
16.27
18.03
15.44
8.44
-1.17
-10.17
-15.79
-16.19
-11.51
-4.4
0.98
1.58
-3.04
-10.73
-17.62
-20.87
-18.57
-10.5
1.11
11.94
17.39
13.25
-3.89
-35.66
-82.08
-136.31
-182.03
-199.58
-178.76
-125.31
-56.98
3.94
48.93
75.96
88.66
93.78
97.27
99.26
99.04
95
86.18
74.18
61.74
52.89
50.87
55.86
64.88
73.52
77.67
75.5
68.38
58.65
49.07
41.62
36.91
34.95
35.82
39.39
45.14
51.91
56.52
54.7
42.45
16.12
-21.1
-59.09
-87.68
-102.78
-106.13
-102.03
-94.09
-84.15
-72.82
-60.2
-47.3
-36.22
-28.94
-25.87
-25.81
-26.67
-26.41
-23.74
-18.29
-11.05
-3.92
1.18
3.55
3.77
3.13
2.99
4.23
7.25
11.49
15.94
19.46
21.57
22.51
22.92
23.43
24.41
25.95
27.2
27.86
27.29
25.16
21.51
16.6
10.82
4.55
-1.06
-6.19
-10.68
-14.43
-17.39
-19.58
-21.15
-22.33
-23.31
-24.18
-24.93
-25.26
-24.95
-24.01
-22.73
-21.63
-21.26
-21.91
-23.47
-25.5
-27.18
-27.93
-27.61
-26.67
-25.96
-26.36
-28.28
-31.53
-35.32
-38.55
-40.58
-41.29
-41.26
-41.32
-42.34
-44.37
-47.59
-52.3
-58.81
-66.55
-73.3
-75.32
-68.51
-50.55
-22.6
10.5
41.92
65.52
78.31
81.24
77.84
72.16
66.97
63.26
61.06
60.93
64.21
72.4
85.39
100.01
110.52
110.75
96.97
70.12
36.89
6.17
-14.59
-22.37
-19.38
-11.03
-3.08
0.97
0.76
-1.96
-5.16
-7.63
-9.54
-11.79
-15.23
-20.39
-27.3
-35.64
-45.45
-57.28
-71.6
-87.36
-102.07
-111.17
-109.9
-95.73
-70.15
-38.67
-8.79
13.11
24.47
26.53
23.19
18.41
14.46
11.56
8.82
5.62
2.19
-0.5
-1.81
-1.79
-1.35
-1.55
-3.31
-6.59
-10.51
-13.79
-15.26
-14.41
-11.39
-7.06
-2.4
1.84
5.47
8.79
12.31
16.37
20.9
25.36
28.92
30.87
30.71
28.51
24.7
19.98
15.08
10.51
6.61
3.53
1.35
0.09
-0.17
0.65
2.59
5.63
9.57
14.21
18.31
21.9
24.9
27.14
28.46
28.83
28.24
26.75
24.58
22.79
20.94
18.81
16.24
13.1
9.35
5.07
0.47
-3.75
-7.09
-9.31
-10.43
-10.71
-10.59
-10.46
-10.56
-10.94
-10.76
-9.49
-7.06
-3.8
-0.3
2.73
4.84
5.99
6.61
8.55
12.95
20.01
28.98
38.47
46.82
52.6
55.16
54.78
54.02
54.94
58.96
66.86
78.77
93.88
110.5
126.44
131.32
122.08
100.07
70.46
40.09
14.91
-2.25
-12.03
-16.54
-19.18
-19.85
-17.73
-12.08
-2.95
8.55
20.01
28.19
30.22
23.42
8.12
-14.84
-44.3
-78.78
-113.36
-140.53
-154.66
-155.43
-146.92
-133.01
-116.65
-99.49
-82.41
-66.07
-51.54
-40.21
-32.95
-29.44
-27.72
-25.94
-22.97
-18.6
-13.36
-8.19
-4.29
-2.29
-1.9
-1.94
-1.46
-0.17
1.65
3.36
4.53
4.82
4.42
3.99
4.27
5.42
6.83
7.45
5.81
1.94
-3.81
-10.51
-17.23
-23.22
-28.56
-33.9
-39.2
-45.59
-53.51
-63.28
-74.69
-86.38
-95.35
-97.43
-88.77
-67.96
-37.52
-3.2
27.78
49.76
60.81
62.82
59.84
55.62
52.08
48.98
45.5
41.23
36.84
33.57
32.25
32.71
33.84
34.33
33.08
30.15
26.35
22.79
20.43
19.55
19.83
20.55
21.1
20.96
20.21
19.18
18.27
17.68
17.37
17.23
17.2
17.37
17.91
18.94
20.41
21.94
23.21
23.91
24.34
24.93
26.32
29.02
33.2
38.75
45.07
51.24
55.89
57.47
54.42
45.46
30.28
9.76
-13.95
-37.95
-59.01
-75.3
-86.59
-93.57
-96.61
-94.81
-86.68
-70.4
-46.59
-18.95
6.63
24.49
31.68
29.22
21.05
11.8
4.44
-0.52
-4.18
-7.74
-11.38
-14.22
-14.94
-12.68
-7.33
0.61
9.94
18.69
24.54
25.55
20.93
11.67
0.22
-10.73
-19.6
-26.42
-32.13
-37.21
-41.06
-42.62
-41.31
-37.77
-33.5
-29.57
-25.69
-20.14
-11.17
1.58
16.25
29.74
39
42.78
41.98
38.87
35.63
33.17
31.12
28.54
24.79
20.07
15.1
10.72
7.3
4.55
1.77
-1.62
-5.72
-9.97
-13.62
-15.9
-16.36
-15.06
-12.45
-9.24
-6.17
-3.88
-2.66
-2.44
-2.89
-3.56
-4.17
-4.77
-5.55
-6.65
-7.94
-9.16
-10.18
-11.22
-12.66
-14.57
-16.43
-17.24
-16.06
-12.66
-7.92
-3.44
-0.68
-0.14
-1.04
-1.83
-1.12
1.58
5.71
10.15
13.93
16.8
18.56
19.56
20.15
20.48
20.4
19.74
18.43
16.7
14.93
13.5
12.65
12.33
12.24
11.97
11.24
9.94
8.19
6.24
4.36
2.84
1.78
1.12
0.65
0.15
-0.49
-1.2
-1.67
-1.58
-0.67
0.95
2.79
4.12
4.28
2.97
0.46
-2.51
-5.06
-6.51
-6.71
-6.02
-5.17
-4.88
-5.61
-7.46
-10.22
-13.6
-17.29
-21
-24.27
-26.46
-26.87
-25.1
-21.34
-16.43
-11.59
-7.82
-5.45
-3.98
-2.46
-0.13
3.02
6.12
7.79
6.8
2.65
-4.15
-12.21
-19.62
-24.34
-24.68
-19.71
-9.65
3.87
18.12
29.94
36.79
37.69
33.5
26.46
19.21
13.73
10.91
10.64
12.4
15.74
20.42
26.18
32.54
38.76
44.12
48.18
50.88
52.29
52.22
50.12
45.23
37.11
26.04
13.17
0.22
-11.05
-19.38
-24.31
-26.16
-25.76
-24.14
-22.19
-20.47
-19.22
-18.44
-17.97
-17.7
-17.53
-17.35
-17.03
-16.39
-15.26
-13.54
-11.28
-8.68
-6.08
-3.94
-2.76
-2.96
-4.75
-7.93
-11.96
-16.07
-19.54
-21.92
-23.15
-23.4
-22.87
-21.63
-19.63
-16.83
-13.37
-9.63
-6.06
-2.97
-0.36
2.02
4.55
7.46
10.72
14.04
17.04
19.44
21.11
22.06
22.31
21.82
20.47
18.1
14.68
10.3
5.25
-0.09
-5.32
-10.12
-14.33
-17.91
-20.97
-23.63
-25.96
-27.96
-29.6
-30.8
-31.52
-31.72
-31.37
-30.41
-28.78
-26.33
-22.74
-17.5
-10.04
-0.09
11.96
24.84
36.64
45.41
49.93
50.16
47.24
42.99
39.12
36.73
36.15
37.11
39.07
41.36
43.39
44.52
44.14
41.69
36.89
29.83
20.99
11.09
0.84
-9.18
-18.6
-27.12
-34.47
-40.37
-44.67
-47.46
-49.2
-50.71
-52.76
-55.73
-59.36
-62.94
-65.68
-67.14
-67.44
-67.16
-66.95
-67.13
-67.42
-67.09
-65.38
-61.9
-56.76
-50.52
-43.9
-37.47
-31.4
-25.48
-19.39
-12.91
-5.75
2.7
13.29
26.49
41.64
56.79
69.29
76.73
78.17
74.69
68.96
63.69
60.75
59.76
58.39
54.35
47.1
37.76
27.94
18.69
10.07
1.92
-6.24
-14.32
-21.48
-26.63
-29.33
-30.29
-31.22
-32.31
-33.78
-35.26
-35.55
-33.32
-28.18
-20.99
-13.39
-6.79
-2.4
0.43
2.41
3.98
5.38
6.67
7.94
9.13
9.97
10.09
8.9
5.92
1.44
-3.38
-7.04
-8.15
-6.15
-1.17
6.4
16.29
28.5
42.44
56.69
69.17
78
81.5
78.59
69.18
54.54
37.09
19.68
5.27
-5.6
-13.07
-17.67
-20.07
-20.81
-20.37
-19.29
-18.26
-17.96
-18.52
-19.6
-20.62
-21.03
-20.52
-19.13
-17.22
-15.32
-13.87
-13.25
-13.64
-15.27
-18.32
-22.74
-28.1
-33.69
-38.68
-42.27
-43.84
-42.89
-39.1
-32.47
-23.38
-12.67
-1.53
8.8
17.32
23.52
27.36
29.12
29.17
27.83
25.49
22.69
20.18
18.75
18.93
20.73
23.49
26.12
27.53
27.11
25.02
22.14
19.76
19.08
20.85
25.37
32.58
42.02
52.51
61.83
66.81
64.31
52.45
31.84
5.73
-20.94
-43.35
-58.45
-65.67
-66.48
-63.12
-57.46
-50.46
-42.42
-33.59
-24.59
-16.43
-10.05
-5.79
-3.22
-1.22
1.5
5.85
11.77
18.24
23.65
26.45
25.85
22.06
16.12
9.35
2.8
-3.14
-8.6
-13.91
-19.16
-23.96
-27.48
-28.81
-27.42
-23.4
-17.57
-11.15
-5.36
-0.98
1.8
3.35
4.25
5
5.81
6.54
6.96
6.84
6.18
5.13
3.94
2.81
1.92
1.32
1.03
0.98
1.05
1
0.52
-0.62
-2.46
-4.71
-6.83
-8.24
-8.52
-7.59
-5.75
-3.44
-1.09
0.99
2.58
3.5
3.52
2.53
0.62
-1.81
-4.13
-5.7
-6.15
-5.58
-4.41
-3.23
-2.33
-1.75
-1.42
-1.18
-0.83
-0.14
1.32
4.33
9.73
17.43
26.05
32.75
34.44
29.4
17.99
2.35
-13.66
-28.07
-39.58
-47.57
-52.04
-53.17
-51.16
-45.86
-38.08
-29.46
-22.24
-18.16
-17.77
-20.28
-23.91
-26.76
-27.6
-26.25
-23.16
-18.81
-13.14
-5.8
3.28
13.45
23.45
31.8
37.39
40.04
40.28
39.16
37.61
35.96
34.06
31.74
29.14
26.68
24.94
24.18
24.34
25.1
25.92
26.32
26.45
26.94
28.46
31.51
35.73
40.41
44.89
48.48
50.77
51.99
52.74
53.33
53.71
52.95
50.33
45.89
39.96
32.51
23.01
10.11
-8.2
-33.12
-64.8
-100.99
-134.69
-158.11
-167.55
-164.05
-150.45
-131.49
-106.54
-75.61
-41.16
-7.8
19.14
34.61
37.05
29.53
17.89
8.33
4.05
5.17
9.66
14.51
17.27
17.21
15.19
12.57
10.75
9.94
9.74
9.47
8.31
5.69
1.91
-1.77
-3.86
-3.06
0.7
6.58
13.26
19.47
24.38
27.91
30.41
32.13
33.08
32.98
31.83
30.17
28.99
29.22
31.37
35.27
40.04
44.55
47.74
48.98
48.18
45.62
41.74
37.03
31.97
26.92
22.14
17.69
13.36
8.82
3.75
-1.96
-8.08
-14.1
-19.45
-23.61
-26.3
-27.44
-27.18
-25.94
-24.38
-23.34
-23.63
-25.76
-29.75
-34.93
-40.1
-43.84
-44.97
-42.98
-38.2
-31.74
-25.1
-19.7
-16.32
-14.96
-14.89
-15.07
-14.62
-13.1
-10.6
-7.54
-4.46
-1.8
0.19
1.41
1.95
2.01
1.9
1.9
2.15
2.58
2.95
2.97
2.48
1.44
-0.19
-2.59
-6.03
-10.67
-16.2
-21.73
-25.89
-27.36
-25.39
-20.24
-13.1
-5.63
0.72
5.19
7.82
9.13
9.7
9.69
8.8
6.46
2.4
-2.91
-8.17
-11.64
-12.03
-9.17
-4.11
1.43
6.01
9.11
11.2
13.08
15.21
17.39
19.09
20.12
21.03
22.96
26.88
32.84
39.68
45.6
48.99
49.35
47.53
45.27
44.48
46.46
51.5
58.63
65.96
71.13
72.11
67.9
59.01
47.42
35.84
26.76
21.54
19.99
20.64
21.37
20.15
15.51
6.72
-6.24
-22.88
-42.31
-63.33
-84.43
-103.78
-119.39
-129.37
-132.54
-128.86
-119.59
-106.9
-93.15
-80.03
-68.32
-58.05
-49.15
-41.84
-36.47
-33.09
-30.98
-28.8
-25.14
-19.4
-12.18
-4.99
0.5
3.35
3.83
3.19
3.14
5.16
9.99
17.49
26.87
37.01
46.85
55.57
62.7
68
71.33
72.48
71.32
67.92
62.69
56.45
50.13
44.53
39.95
36.23
32.88
29.46
25.89
22.49
19.87
18.64
19.09
21.09
24.13
27.51
30.57
32.94
34.5
35.45
36.13
36.86
37.69
38.37
38.34
36.89
33.4
27.53
19.43
9.74
-0.52
-10.25
-18.6
-25.26
-30.59
-35.37
-40.45
-46.28
-52.65
-58.77
-63.62
-66.42
-66.95
-65.61
-63.22
-60.73
-58.76
-57.34
-55.76
-52.8
-47.12
-38
-25.79
-11.89
1.66
13.08
21.53
27.31
31.46
34.96
38.26
41.38
44.28
47.2
50.52
54.19
57.06
56.9
51.08
38.16
18.91
-3.62
-25.37
-43.06
-55.6
-64.22
-71.61
-80.78
-93.41
-109.31
-126.67
-143.12
-156.44
-164.86
-166.75
-160.48
-145.25
-121.32
-90.65
-56.82
-24.52
1.72
18.99
27.22
31.72
37.37
46.58
57.5
65.98
68.76
65.17
56.88
46.92
38.13
31.4
25.88
20.02
13.45
7.01
3.51
5.21
12.38
22.9
32.71
38.08
37.56
32.61
27.26
25.96
30.59
39.22
47.23
49.87
45.84
37.12
28.1
23.38
25.34
32.98
42.39
48.2
46.07
34.76
16.81
-2.73
-18.68
-27.8
-29.25
-24.6
-17.18
-10.29
-5.39
-1.55
3.6
12.07
24.32
39.13
54.64
68.75
79.69
86.4
87.99
82.89
68.9
44.48
9.27
-29.28
-59.35
-72.9
-70.81
-60.44
-49.31
-40.57
-32.39
-21.05
-4.96
12.2
22.96
20.99
5.5
-17.95
-40.66
-55.35
-59.53
-55.57
-48.93
-44.77
-45.26
-49.27
-53.88
-56.26
-54.55
-48.03
-37.05
-23.32
-9.83
0.28
5.04
4.52
0.78
-3.15
-4.68
-2.88
1.43
6.41
10.86
15.29
21.54
31.61
46.13
63.73
81.63
97.13
108.63
115.8
118.82
116.97
108.1
89.45
59.73
20.88
-21
-57.66
-81.8
-89.98
-83.92
-69.65
-54.58
-43.55
-39.85
-42.22
-47.32
-52.12
-55.25
-56.77
-57.44
-57.33
-55.26
-49.44
-38.49
-22.86
-5.06
11.15
22.96
28.33
27.26
21.54
13.9
7.13
2.91
1.49
2.1
3.94
5.98
7.97
10.47
14.34
20.17
27.63
35.54
42.74
49.02
54.4
59.29
63.84
67.21
67.47
62.43
50.88
32.23
11.62
-5.94
-17.64
-24.29
-28.56
-33.24
-39.93
-48.42
-56.7
-62.04
-63.36
-61.02
-56.41
-50.82
-45.49
-39.78
-34.12
-28.77
-23.79
-19.72
-16.98
-15.55
-14.36
-12.82
-11.06
-9.56
-8.4
-7.34
-6.4
-5.5
-4.3
-1.4
3.35
8.85
13.9
18.26
22.32
26.66
32.22
40.15
52.47
68.58
85.31
98.84
105.91
103.84
90.51
65.1
22.56
-30.93
-81.58
-117.7
-134.74
-133.87
-119.39
-97.29
-73.58
-53.8
-37.61
-25.72
-19.45
-18.09
-18.85
-18.23
-12.99
0.1
22.47
55.09
95.3
130.77
150.33
150.8
137
115.62
91.22
66.21
43.09
23.8
9.94
3.51
4.91
11.47
18.17
20.33
15.9
6.39
-5.09
-15.62
-22.7
-25.47
-25.1
-23.89
-23.73
-25.28
-27.99
-30.98
-33.91
-36.2
-37.35
-37.24
-36.03
-33.72
-30.08
-25
-18.84
-12.52
-6.99
-3.04
-1.14
-1.27
-2.7
-4.16
-4.49
-3.07
-0.16
3.45
6.83
9.19
10
9.53
8.72
8.28
8.88
10.67
13.49
16.76
19.81
21.63
21.44
19.78
17.11
13.91
10.41
6.56
2.72
-1.04
-5.58
-11.79
-19.97
-29.43
-38.57
-45.54
-48.61
-46.9
-38.76
-26.14
-13.85
-6.67
-6.71
-12.15
-20.93
-31.56
-42.21
-51.43
-58.58
-63.21
-64.66
-61.82
-53.89
-41.15
-24.92
-7.45
8.63
20.95
28.79
33.34
37.3
42.84
50.29
58.39
65.31
69.88
72.01
72.63
69.76
62.13
49.37
32.53
14.03
-3.06
-15.62
-21.69
-21.26
-16.28
-9.24
-2.55
2.49
5.78
7.78
9.07
10.04
10.64
10.71
10.54
10.57
11.19
12.63
14.95
17.62
20.32
22.72
24.58
25.96
26.98
27.64
27.82
27.41
26.45
25.25
24.15
23.37
23.09
23.29
23.66
23.65
22.56
19.87
15.5
9.82
3.61
-2.11
-6.46
-9.07
-10.2
-10.63
-11.25
-12.88
-16.36
-22.37
-31.2
-42.34
-54.4
-65.42
-73.44
-77.12
-76.32
-72.38
-67.49
-63.59
-61.55
-61.19
-61.75
-62.54
-63.11
-63.37
-63.74
-64.83
-66.81
-69.24
-71.34
-72.23
-70.96
-66.1
-55.9
-39.38
-16.89
9.83
37.94
64.16
85.97
100.77
107.29
108.2
107.66
106.26
100.26
85.03
59
25.17
-10.03
-39.5
-58.38
-65.41
-62.21
-51.04
-33.67
-11.71
12.31
34.89
53.13
64.33
67.25
62.42
52.35
40.54
30.13
22.88
19.04
17.81
17.68
16.84
13.73
8.06
0.99
-5.31
-8.6
-6.53
2.56
18.57
39.19
57.99
67.56
64.39
50.9
33.22
17.89
9.19
7.27
9.65
13.5
16.99
19.65
21.9
23.94
25.58
26.82
27.37
26.65
24.51
21.65
19.31
18.98
20.7
23.47
25.78
25.92
21.81
12.93
0.81
-11.98
-21.78
-27.14
-27.89
-24.68
-18.97
-13.88
-11.67
-12.85
-16.92
-20.93
-24.31
-27.95
-33.77
-44.49
-63.44
-90.63
-121.95
-152.09
-174.39
-188.05
-196.63
-205.75
-204.97
-188.12
-157.69
-123.83
-108.76
-109.87
-121.3
-137.1
-144.11
-133.92
-104.22
-57.55
6.67
74.24
128.32
158.62
168.15
167.24
164.31
161.49
157.07
148.79
135.18
119.99
107.21
99.87
98.9
102.47
106.9
109.18
107.86
102.09
93.75
84.14
73.49
61.25
46.3
28
6.74
-16.34
-40.48
-64.42
-86.65
-105.73
-119.94
-127.44
-126.3
-115.35
-94.95
-67.66
-36.82
-6.34
19.89
39.14
50.2
53.55
50.77
44.04
35.62
28.2
24.33
25.05
29.87
35.97
40.44
41.03
37.93
32.03
26.07
23.46
26.02
33.72
44.75
56.69
67.33
72.63
69.32
56.76
38.82
17.91
-3.68
-24.17
-41.71
-55.4
-66.61
-79.22
-96.18
-117.39
-139.74
-157.73
-166.1
-162.03
-146.52
-117.48
-80.25
-43.77
-14.22
8.32
27.83
47.37
66.6
82.26
90.57
88.66
77.34
60.57
42.96
27.89
16.5
8.29
2
-3.39
-8.84
-13.89
-17.13
-17.72
-15.65
-12.19
-9.03
-7.36
-7.39
-8.84
-10.61
-11.36
-10.37
-7.92
-5.02
-2.71
-1.5
-1.2
-1.39
-1.42
-0.69
1.01
3.47
6.16
8.66
10.22
10.79
10.65
10.3
10.19
10.53
11.23
12.01
12.58
12.8
12.79
12.81
13.05
13.42
13.73
13.76
13.44
12.83
12.12
11.58
11.64
12.46
13.92
15.65
17.2
18.2
18.48
18.16
17.63
17.64
18.64
20.49
22.5
23.8
23.66
21.88
18.81
13.35
5.46
-3.97
-13.39
-21.17
-26.09
-27.84
-27.17
-25.85
-25.93
-28.5
-33.1
-38.46
-42.84
-44.74
-43.6
-39.92
-34.81
-29.27
-23.51
-17.26
-10.21
-2.82
4.2
10.03
14.04
15.96
15.95
14.65
12.73
10.67
8.74
7.12
5.84
4.81
3.93
3.12
2.37
1.67
0.91
0.05
-0.76
-1.24
-1.01
0.31
3.03
7.15
12.17
17.28
21.7
25.06
27.51
29.7
32.47
36.51
41.61
46.39
48.69
46.72
39.81
28.93
16.34
4.84
-3.01
-5.99
-4.62
-0.63
4.2
8.45
11.41
13.05
13.86
15.08
17.92
23
29.91
37.57
43.29
43.43
34.3
11.5
-24.85
-68.82
-110.9
-142.86
-160.08
-162.74
-153.52
-135.71
-112.31
-85.36
-56.42
-26.92
1.99
30.9
60.06
88.52
114.29
134.65
147.13
149.95
142.49
120.92
89.88
55.98
24.98
0.24
-17.42
-28.74
-35.1
-37.93
-38.35
-36.51
-33.5
-30.84
-29.75
-30.57
-32.87
-35.16
-36.1
-35.02
-31.53
-26.62
-21.83
-18.33
-16.55
-16.13
-16.19
-15.92
-14.93
-12.95
-10.52
-8.46
-7.32
-7.21
-7.8
-8.56
-9.06
-9.1
-8.58
-7.76
-6.97
-6.43
-6.1
-5.79
-5.21
-4.17
-2.57
-0.41
2.09
4.65
6.93
8.69
9.82
10.33
10.34
9.97
9.36
8.56
7.59
6.46
5.22
3.95
2.79
1.88
1.31
1.08
1.1
1.24
1.35
1.36
1.26
1.06
0.82
0.59
0.4
0.32
0.38
0.63
1.05
1.55
2.02
2.32
2.37
2.16
1.77
1.33
0.94
0.65
0.45
0.29
0.06
-0.29
-0.79
-1.36
-1.87
-2.17
-2.15
-1.77
-1.08
-0.23
0.62
1.31
1.78
2.01
2.1
2.17
2.36
2.78
3.41
4.08
4.57
4.68
4.36
3.76
3.17
2.92
3.21
4.1
5.43
6.92
8.21
8.97
8.96
8.02
6.2
3.74
1.02
-1.52
-3.52
-4.85
-5.56
-5.89
-6.09
-6.3
-6.54
-6.72
-6.73
-6.51
-6.13
-5.73
-5.48
-5.47
-5.72
-6.09
-6.44
-6.58
-6.45
-6.04
-5.42
-4.69
-3.93
-3.14
-2.33
-1.48
-0.62
0.16
0.79
1.18
1.39
1.51
1.72
2.16
2.88
3.79
4.72
5.45
5.86
5.96
5.82
5.56
5.22
4.8
4.24
3.56
2.86
2.31
2.02
1.97
2.01
1.98
1.75
1.31
0.78
0.29
-0.08
-0.31
-0.4
-0.38
-0.25
-0.03
0.23
0.47
0.67
0.86
1.13
1.57
2.18
2.83
3.33
3.47
3.2
2.62
1.94
1.43
1.24
1.41
1.78
2.14
2.3
2.19
1.87
1.51
1.25
1.18
1.22
1.27
1.19
0.92
0.48
-0.03
-0.49
-0.83
-0.98
-0.91
-0.64
-0.18
0.39
0.94
1.34
1.52
1.45
1.22
0.94
0.69
0.52
0.39
0.23
-0.02
-0.39
-0.88
-1.46
-2.07
-2.67
-3.21
-3.63
-3.86
-3.87
-3.64
-3.17
-2.5
-1.68
-0.79
0.09
0.87
1.5
1.98
2.36
2.73
3.11
3.44
3.53
3.2
2.32
0.93
-0.75
-2.44
-3.83
-4.79
-5.35
-5.64
-5.86
-6.16
-6.6
-7.09
-7.5
-7.65
-7.4
-6.71
-5.67
-4.44
-3.28
-2.43
-2.08
-2.27
-2.81
-3.33
-3.39
-2.61
-0.83
1.77
4.85
7.94
10.7
12.98
14.79
16.2
17.25
17.88
17.98
17.42
16.11
14.01
11.16
7.7
3.92
0.26
-2.82
-4.94
-5.93
-5.89
-5.11
-3.9
-2.57
-1.3
-0.24
0.48
0.8
0.7
0.33
-0.1
-0.34
-0.29
0.02
0.4
0.66
0.67
0.42
0
-0.51
-1.04
-1.55
-2.05
-2.52
-2.96
-3.34
-3.63
-3.82
-3.83
-3.63
-3.2
-2.53
-1.7
-0.81
0.05
0.8
1.39
1.74
1.77
1.41
0.65
-0.45
-1.73
-2.96
-3.95
-4.58
-4.82
-4.75
-4.48
-4.07
-3.5
-2.75
-1.82
-0.76
0.29
1.15
1.68
1.83
1.63
1.18
0.57
-0.1
-0.77
-1.36
-1.79
-1.97
-1.86
-1.48
-0.94
-0.34
0.2
0.59
0.79
0.81
0.68
0.42
0.1
-0.28
-0.72
-1.27
-1.98
-2.83
-3.72
-4.48
-4.88
-4.76
-4.03
-2.74
-1.04
0.82
2.6
4.07
5.07
5.52
5.46
5.03
4.42
3.78
3.24
2.84
2.58
2.47
2.49
2.63
2.87
3.11
3.28
3.32
3.2
2.95
2.59
2.16
1.69
1.2
0.72
0.28
-0.09
-0.41
-0.72
-1.04
-1.36
-1.59
-1.67
-1.57
-1.34
-1.07
-0.85
-0.71
-0.62
-0.51
-0.37
-0.23
-0.13
-0.12
-0.15
-0.12
0.08
0.5
1.08
1.67
2.1
2.25
2.13
1.84
1.57
1.45
1.57
1.88
2.28
2.62
2.82
2.83
2.72
2.55
2.39
2.25
2.1
1.85
1.48
0.99
0.49
0.06
-0.19
-0.24
-0.11
0.11
0.33
0.47
0.47
0.3
-0.02
-0.48
-1.05
-1.69
-2.35
-2.94
-3.36
-3.51
-3.34
-2.88
-2.24
-1.56
-0.96
-0.53
-0.26
-0.1
-0.01
0.06
0.11
0.15
0.23
0.38
0.62
0.92
1.23
1.47
1.6
1.63
1.59
1.53
1.51
1.53
1.59
1.63
1.65
1.63
1.56
1.47
1.36
1.24
1.12
0.99
0.83
0.61
0.33
-0.02
-0.37
-0.7
-0.97
-1.23
-1.5
-1.78
-2.04
-2.22
-2.3
-2.27
-2.21
-2.17
-2.21
-2.29
-2.32
-2.17
-1.79
-1.2
-0.5
0.14
0.61
0.88
1
1.07
1.18
1.36
1.59
1.78
1.87
1.85
1.79
1.75
1.78
1.88
1.99
2.03
1.93
1.71
1.41
1.14
1
0.99
1.06
1.11
1.07
0.93
0.75
0.59
0.48
0.35
0.15
-0.14
-0.48
-0.73
-0.79
-0.68
-0.5
-0.44
-0.6
-0.95
-1.38
-1.72
-1.87
-1.86
-1.78
-1.7
-1.64
-1.54
-1.34
-0.99
-0.52
-0.02
0.43
0.78
1.01
1.18
1.3
1.42
1.54
1.64
1.68
1.64
1.5
1.29
1.09
0.95
0.95
1.09
1.31
1.52
1.6
1.48
1.14
0.66
0.17
-0.2
-0.38
-0.36
-0.18
0.03
0.15
0.1
-0.17
-0.65
-1.27
-1.9
-2.42
-2.77
-2.93
-3
-3.05
-3.12
-3.2
-3.24
-3.16
-2.98
-2.68
-2.31
-1.85
-1.34
-0.83
-0.43
-0.2
-0.17
-0.29
-0.4
-0.39
-0.19
0.16
0.59
1.01
1.4
1.76
2.11
2.47
2.8
3.06
3.19
3.15
2.93
2.55
2.05
1.49
0.91
0.34
-0.26
-0.87
-1.47
-2.01
-2.41
-2.6
-2.59
-2.43
-2.21
-2.02
-1.92
-1.89
-1.86
-1.76
-1.57
-1.27
-0.93
-0.6
-0.29
0.02
0.4
0.86
1.4
1.92
2.31
2.5
2.48
2.33
2.14
1.96
1.82
1.69
1.57
1.48
1.47
1.57
1.77
1.97
2.09
2.04
1.85
1.58
1.31
1.08
0.87
0.63
0.3
-0.13
-0.61
-1.08
-1.46
-1.71
-1.88
-2.03
-2.25
-2.6
-3.04
-3.49
-3.82
-3.91
-3.69
-3.23
-2.63
-2.06
-1.62
-1.31
-1.03
-0.66
-0.08
0.73
1.66
2.55
3.24
3.62
3.72
3.64
3.5
3.37
3.3
3.29
3.35
3.45
3.54
3.5
3.22
2.65
1.88
1.05
0.38
-0.01
-0.16
-0.2
-0.28
-0.51
-0.86
-1.27
-1.65
-1.97
-2.21
-2.35
-2.41
-2.39
-2.3
-2.2
-2.13
-2.16
-2.29
-2.51
-2.77
-3.02
-3.17
-3.14
-2.89
-2.44
-1.88
-1.36
-1.02
-0.91
-0.99
-1.17
-1.37
-1.55
-1.71
-1.84
-1.93
-1.95
-1.91
-1.87
-1.9
-2.09
-2.43
-2.85
-3.25
-3.52
-3.6
-3.42
-2.96
-2.22
-1.27
-0.27
0.62
1.22
1.47
1.41
1.18
0.89
0.66
0.51
0.45
0.41
0.29
0
-0.52
-1.25
-2.09
-2.89
-3.52
-3.9
-4.04
-3.94
-3.6
-3
-2.14
-1.09
-0.04
0.84
1.39
1.63
1.67
1.66
1.71
1.77
1.76
1.59
1.29
0.95
0.76
0.86
1.27
1.89
2.52
2.92
2.95
2.55
1.85
1
0.18
-0.5
-1.01
-1.38
-1.65
-1.86
-2.01
-2.06
-1.99
-1.76
-1.38
-0.88
-0.28
0.39
1.07
1.71
2.25
2.65
2.87
2.91
2.76
2.46
2.1
1.81
1.73
1.95
2.43
3.04
3.58
3.87
3.86
3.57
3.12
2.62
2.15
1.72
1.33
0.96
0.62
0.36
0.18
0.05
-0.06
-0.18
-0.32
-0.43
-0.47
-0.42
-0.29
-0.15
-0.07
-0.13
-0.34
-0.65
-0.97
-1.23
-1.4
-1.52
-1.7
-2.06
-2.69
-3.55
-4.46
-5.18
-5.48
-5.24
-4.53
-3.53
-2.51
-1.63
-0.94
-0.4
0.09
0.58
1.06
1.47
1.75
1.89
1.92
1.88
1.82
1.74
1.64
1.51
1.38
1.27
1.25
1.32
1.51
1.75
1.98
2.13
2.19
2.17
2.13
2.09
2.09
2.11
2.14
2.17
2.19
2.19
2.16
2.06
1.85
1.51
1.05
0.51
-0.06
-0.62
-1.16
-1.7
-2.22
-2.72
-3.17
-3.55
-3.81
-3.95
-3.95
-3.84
-3.66
-3.42
-3.14
-2.82
-2.41
-1.9
-1.28
-0.57
0.13
0.76
1.28
1.65
1.91
2.07
2.18
2.25
2.31
2.36
2.37
2.34
2.26
2.15
2.02
1.92
1.84
1.79
1.74
1.68
1.6
1.51
1.39
1.21
0.95
0.61
0.22
-0.17
-0.51
-0.76
-0.91
-0.94
-0.88
-0.75
-0.64
-0.67
-0.89
-1.3
-1.8
-2.28
-2.6
-2.72
-2.65
-2.44
-2.12
-1.72
-1.25
-0.74
-0.23
0.23
0.61
0.91
1.13
1.28
1.37
1.44
1.55
1.75
2.05
2.38
2.64
2.72
2.64
2.46
2.31
2.26
2.3
2.32
2.2
1.91
1.51
1.11
0.82
0.64
0.55
0.48
0.38
0.26
0.11
-0.06
-0.28
-0.57
-0.89
-1.17
-1.34
-1.35
-1.27
-1.2
-1.24
-1.48
-1.89
-2.39
-2.87
-3.21
-3.39
-3.39
-3.29
-3.15
-3.04
-2.97
-2.92
-2.83
-2.64
-2.34
-1.94
-1.49
-1.04
-0.65
-0.31
-0.06
0.13
0.26
0.4
0.58
0.85
1.17
1.52
1.8
1.95
1.95
1.84
1.69
1.57
1.5
1.45
1.34
1.15
0.88
0.58
0.33
0.16
0.02
-0.17
-0.47
-0.9
-1.39
-1.84
-2.18
-2.39
-2.53
-2.72
-3.01
-3.4
-3.77
-3.94
-3.78
-3.26
-2.48
-1.63
-0.88
-0.36
-0.06
0.07
0.12
0.15
0.21
0.36
0.62
1.03
1.56
2.14
2.65
2.97
3.05
2.91
2.6
2.22
1.84
1.53
1.35
1.3
1.38
1.53
1.66
1.65
1.44
1.04
0.53
0.04
-0.3
-0.43
-0.38
-0.29
-0.28
-0.46
-0.84
-1.39
-2.03
-2.7
-3.32
-3.81
-4.09
-4.1
-3.83
-3.35
-2.77
-2.25
-1.88
-1.69
-1.59
-1.51
-1.34
-1.05
-0.65
-0.19
0.32
0.85
1.37
1.86
2.3
2.64
2.88
3.02
3.07
3.08
3.07
3.05
3
2.89
2.66
2.32
1.88
1.4
0.97
0.69
0.58
0.59
0.61
0.52
0.25
-0.18
-0.66
-1.08
-1.33
-1.42
-1.42
-1.43
-1.56
-1.85
-2.27
-2.72
-3.07
-3.2
-3.07
-2.7
-2.2
-1.72
-1.37
-1.17
-1.11
-1.09
-1.03
-0.88
-0.66
-0.4
-0.13
0.15
0.47
0.87
1.37
1.93
2.45
2.85
3.07
3.09
2.98
2.84
2.77
2.82
2.94
3.05
3.02
2.79
2.38
1.89
1.47
1.19
1.09
1.1
1.11
1.03
0.83
0.55
0.26
0.03
-0.14
-0.26
-0.39
-0.59
-0.89
-1.28
-1.74
-2.22
-2.63
-2.91
-3.03
-3.01
-2.88
-2.69
-2.45
-2.14
-1.7
-1.13
-0.5
0.08
0.47
0.61
0.57
0.47
0.45
0.57
0.81
1.08
1.26
1.31
1.23
1.1
0.97
0.86
0.75
0.61
0.43
0.21
-0.04
-0.28
-0.47
-0.58
-0.61
-0.56
-0.47
-0.35
-0.25
-0.2
-0.26
-0.47
-0.84
-1.34
-1.88
-2.36
-2.68
-2.8
-2.75
-2.59
-2.38
-2.13
-1.8
-1.38
-0.85
-0.24
0.38
0.94
1.39
1.68
1.82
1.82
1.75
1.68
1.69
1.82
2.05
2.32
2.5
2.53
2.43
2.27
2.18
2.24
2.43
2.67
2.81
2.75
2.5
2.12
1.79
1.58
1.49
1.44
1.31
1.04
0.67
0.32
0.07
-0.03
-0.07
-0.15
-0.38
-0.79
-1.34
-1.97
-2.64
-3.35
-4.12
-4.9
-5.57
-5.98
-5.99
-5.56
-4.79
-3.81
-2.79
-1.84
-1.03
-0.37
0.12
0.47
0.71
0.92
1.15
1.42
1.73
2.02
2.23
2.34
2.35
2.32
2.3
2.32
2.36
2.41
2.39
2.23
1.9
1.4
0.82
0.23
-0.27
-0.65
-0.95
-1.21
-1.42
-1.57
-1.61
-1.56
-1.52
-1.66
-2.06
-2.7
-3.4
-3.89
-3.98
-3.66
-3.13
-2.64
-2.4
-2.42
-2.56
-2.61
-2.41
-1.94
-1.27
-0.51
0.23
0.88
1.39
1.74
1.92
1.92
1.81
1.66
1.52
1.44
1.4
1.38
1.35
1.31
1.25
1.16
1.03
0.85
0.59
0.22
-0.3
-0.99
-1.75
-2.4
-2.7
-2.44
-1.58
-0.24
1.3
2.81
4.16
5.38
6.59
7.86
9.13
10.16
10.71
10.61
9.85
8.63
7.21
5.82
4.56
3.38
2.16
0.81
-0.67
-2.13
-3.43
-4.42
-5.04
-5.35
-5.43
-5.35
-5.15
-4.84
-4.43
-3.96
-3.5
-3.07
-2.68
-2.28
-1.83
-1.32
-0.83
-0.47
-0.3
-0.33
-0.48
-0.66
-0.79
-0.83
-0.84
-0.87
-0.96
-1.13
-1.36
-1.62
-1.88
-2.09
-2.21
-2.2
-2.06
-1.82
-1.57
-1.44
-1.5
-1.77
-2.15
-2.52
-2.75
-2.8
-2.7
-2.55
-2.39
-2.22
-1.94
-1.5
-0.89
-0.22
0.36
0.73
0.87
0.86
0.83
0.89
1.06
1.31
1.59
1.86
2.1
2.29
2.4
2.38
2.26
2.09
1.97
1.99
2.14
2.33
2.4
2.25
1.87
1.38
0.91
0.57
0.36
0.18
-0.07
-0.48
-1.04
-1.69
-2.3
-2.76
-3.03
-3.09
-2.98
-2.77
-2.55
-2.36
-2.25
-2.19
-2.14
-2.05
-1.88
-1.58
-1.15
-0.58
0.07
0.71
1.22
1.53
1.58
1.44
1.19
0.98
0.89
0.97
1.17
1.42
1.66
1.87
2.03
2.18
2.32
2.41
2.41
2.24
1.91
1.47
1
0.62
0.35
0.15
-0.06
-0.38
-0.79
-1.24
-1.6
-1.81
-1.89
-1.99
-2.24
-2.71
-3.35
-3.98
-4.42
-4.57
-4.43
-4.16
-3.91
-3.79
-3.79
-3.8
-3.7
-3.37
-2.81
-2.09
-1.33
-0.65
-0.11
0.29
0.58
0.79
0.94
1.07
1.18
1.28
1.4
1.54
1.68
1.77
1.75
1.56
1.18
0.69
0.2
-0.15
-0.28
-0.21
-0.08
-0.07
-0.3
-0.78
-1.36
-1.82
-1.96
-1.68
-1.04
-0.21
0.61
1.25
1.61
1.65
1.39
0.9
0.25
-0.46
-1.11
-1.56
-1.71
-1.52
-1.03
-0.37
0.28
0.8
1.11
1.26
1.38
1.62
2.06
2.68
3.37
3.97
4.34
4.43
4.31
4.04
3.7
3.36
3.05
2.8
2.6
2.44
2.3
2.13
1.92
1.7
1.53
1.45
1.45
1.45
1.35
1.07
0.63
0.1
-0.39
-0.7
-0.8
-0.74
-0.63
-0.58
-0.65
-0.85
-1.12
-1.37
-1.55
-1.66
-1.74
-1.82
-1.88
-1.85
-1.66
-1.27
-0.77
-0.3
0
0.07
-0.01
-0.08
0.02
0.33
0.81
1.29
1.65
1.85
1.94
1.97
1.95
1.87
1.68
1.38
1.03
0.75
0.61
0.61
0.64
0.61
0.44
0.15
-0.17
-0.42
-0.54
-0.56
-0.58
-0.69
-0.92
-1.26
-1.66
-2.04
-2.4
-2.74
-3.11
-3.5
-3.83
-4.02
-3.96
-3.61
-2.99
-2.24
-1.51
-0.96
-0.66
-0.58
-0.6
-0.58
-0.44
-0.12
0.34
0.84
1.26
1.51
1.56
1.44
1.28
1.18
1.2
1.32
1.5
1.68
1.86
2.1
2.38
2.66
2.78
2.55
1.93
1.02
0.05
-0.72
-1.15
-1.25
-1.16
-1
-0.87
-0.81
-0.81
-0.87
-1.01
-1.26
-1.59
-1.99
-2.38
-2.71
-2.91
-2.93
-2.76
-2.42
-1.98
-1.54
-1.17
-0.91
-0.72
-0.51
-0.21
0.22
0.74
1.29
1.81
2.29
2.69
3.01
3.2
3.27
3.25
3.21
3.22
3.32
3.46
3.53
3.39
3.01
2.4
1.67
0.93
0.28
-0.22
-0.53
-0.66
-0.67
-0.65
-0.74
-1
-1.41
-1.87
-2.28
-2.6
-2.88
-3.24
-3.7
-4.18
-4.47
-4.43
-4
-3.32
-2.61
-2.06
-1.72
-1.5
-1.25
-0.82
-0.17
0.69
1.69
2.72
3.7
4.54
5.17
5.51
5.46
4.98
4.06
2.78
1.32
-0.06
-1.09
-1.6
-1.55
-1.07
-0.39
0.23
0.58
0.58
0.29
-0.15
-0.55
-0.78
-0.8
-0.73
-0.76
-1.07
-1.75
-2.67
-3.62
-4.37
-4.8
-4.98
-5.06
-5.15
-5.22
-5.13
-4.72
-3.97
-3.05
-2.24
-1.79
-1.79
-2.08
-2.39
-2.44
-2.09
-1.37
-0.43
0.55
1.37
1.91
2.09
1.9
1.39
0.71
0.01
-0.56
-0.94
-1.14
-1.2
-1.17
-1.06
-0.82
-0.42
0.12
0.72
1.25
1.58
1.67
1.58
1.45
1.44
1.63
2.02
2.5
2.89
3.04
2.85
2.33
1.53
0.55
-0.44
-1.28
-1.79
-1.83
-1.38
-0.54
0.45
1.29
1.76
1.82
1.6
1.32
1.22
1.39
1.81
2.3
2.7
2.9
2.88
2.66
2.33
1.94
1.56
1.27
1.15
1.24
1.58
2.12
2.76
3.38
3.85
4.05
3.94
3.49
2.76
1.87
0.93
0.07
-0.64
-1.18
-1.57
-1.83
-1.99
-2.06
-2.09
-2.15
-2.32
-2.65
-3.09
-3.55
-3.91
-4.09
-4.06
-3.85
-3.5
-3.07
-2.55
-2
-1.45
-0.95
-0.52
-0.13
0.27
0.71
1.16
1.54
1.78
1.84
1.8
1.74
1.76
1.86
2.02
2.19
2.35
2.48
2.56
2.55
2.38
2.01
1.47
0.84
0.3
-0.06
-0.21
-0.22
-0.2
-0.28
-0.46
-0.69
-0.91
-1.03
-1.09
-1.15
-1.28
-1.49
-1.73
-1.88
-1.85
-1.62
-1.25
-0.86
-0.53
-0.24
0.08
0.56
1.25
2.05
2.75
3.15
3.15
2.8
2.3
1.88
1.65
1.64
1.74
1.87
1.99
2.11
2.25
2.38
2.41
2.24
1.84
1.29
0.71
0.24
-0.06
-0.22
-0.35
-0.55
-0.92
-1.46
-2.08
-2.69
-3.15
-3.43
-3.53
-3.48
-3.36
-3.17
-2.9
-2.48
-1.92
-1.27
-0.67
-0.24
-0.07
-0.12
-0.23
-0.23
-0.01
0.44
1
1.53
1.88
1.99
1.87
1.61
1.3
0.99
0.74
0.54
0.39
0.23
0.05
-0.2
-0.52
-0.91
-1.36
-1.83
-2.28
-2.68
-2.98
-3.16
-3.25
-3.29
-3.34
-3.4
-3.43
-3.36
-3.17
-2.89
-2.6
-2.38
-2.29
-2.29
-2.27
-2.12
-1.79
-1.3
-0.72
-0.11
0.51
1.13
1.75
2.32
2.76
3
3.02
2.92
2.79
2.74
2.83
3
3.21
3.39
3.52
3.64
3.8
3.99
4.17
4.22
4.04
3.56
2.84
2.01
1.27
0.78
0.6
0.65
0.81
0.89
0.8
0.51
0.08
-0.42
-0.93
-1.42
-1.87
-2.24
-2.53
-2.75
-2.99
-3.33
-3.78
-4.31
-4.75
-4.88
-4.58
-3.83
-2.78
-1.68
-0.79
-0.22
0.04
0.15
0.29
0.59
1.07
1.66
2.22
2.71
3.11
3.49
3.89
4.26
4.47
4.37
3.92
3.18
2.32
1.53
0.96
0.59
0.33
0.06
-0.32
-0.77
-1.21
-1.51
-1.59
-1.5
-1.33
-1.23
-1.29
-1.51
-1.85
-2.21
-2.54
-2.81
-3.06
-3.34
-3.63
-3.88
-4.04
-4.06
-3.93
-3.68
-3.36
-3
-2.57
-2.07
-1.46
-0.77
-0.03
0.67
1.27
1.75
2.12
2.39
2.6
2.73
2.77
2.71
2.54
2.32
2.09
1.94
1.89
1.89
1.88
1.79
1.6
1.35
1.15
1.05
1.09
1.18
1.2
1.04
0.67
0.15
-0.39
-0.8
-0.98
-0.93
-0.67
-0.31
0.06
0.36
0.52
0.52
0.39
0.18
-0.09
-0.35
-0.56
-0.69
-0.68
-0.53
-0.29
-0.04
0.14
0.15
0
-0.27
-0.54
-0.7
-0.68
-0.46
-0.09
0.32
0.68
0.94
1.04
0.98
0.79
0.5
0.19
-0.09
-0.28
-0.34
-0.27
-0.14
-0.03
0
-0.08
-0.26
-0.45
-0.59
-0.6
-0.5
-0.32
-0.15
-0.04
-0.03
-0.1
-0.2
-0.3
-0.42
-0.58
-0.84
-1.2
-1.64
-2.08
-2.48
-2.79
-3.02
-3.17
-3.27
-3.29
-3.2
-2.96
-2.58
-2.1
-1.59
-1.11
-0.66
-0.21
0.27
0.81
1.39
1.92
2.35
2.63
2.77
2.86
2.99
3.21
3.46
3.65
3.67
3.49
3.17
2.84
2.65
2.65
2.79
2.97
3.08
3.05
2.9
2.69
2.45
2.2
1.92
1.59
1.2
0.8
0.42
0.11
-0.13
-0.3
-0.45
-0.63
-0.88
-1.21
-1.63
-2.08
-2.55
-2.97
-3.34
-3.61
-3.78
-3.84
-3.81
-3.71
-3.54
-3.3
-2.95
-2.47
-1.88
-1.21
-0.55
0.03
0.52
0.92
1.27
1.59
1.88
2.09
2.16
2.07
1.82
1.48
1.13
0.87
0.74
0.73
0.79
0.85
0.88
0.9
0.94
1.04
1.17
1.22
1.07
0.63
-0.06
-0.85
-1.54
-1.97
-2.1
-2.06
-2.03
-2.19
-2.57
-3.13
-3.77
-4.43
-5.1
-5.8
-6.5
-7.09
-7.43
-7.4
-7.02
-6.44
-5.87
-5.47
-5.29
-5.27
-5.29
-5.25
-5.14
-5.04
-5.07
-5.27
-5.65
-6.13
-6.64
-7.1
-7.51
-7.83
-8.04
-8.1
-8.02
-7.83
-7.62
-7.46
-7.36
-7.23
-6.95
-6.4
-5.61
-4.64
-3.61
-2.59
-1.53
-0.4
0.83
2.06
3.16
4.01
4.6
5.04
5.51
6.15
7
7.96
8.93
9.81
10.57
11.25
11.91
12.61
13.37
14.22
15.21
16.39
17.83
19.5
21.33
23.15
24.78
26.08
26.96
27.41
27.48
27.25
26.77
26.1
25.29
24.42
23.57
22.81
22.16
21.61
21.08
20.49
19.78
18.93
17.98
16.96
15.86
14.62
13.15
11.41
9.46
7.51
5.79
4.5
3.67
3.17
2.77
2.24
1.47
0.54
-0.38
-1.08
-1.46
-1.5
-1.27
-0.84
-0.28
0.37
1.05
1.71
2.3
2.79
3.21
3.52
3.65
3.48
2.92
1.95
0.72
-0.59
-1.81
-2.93
-4.05
-5.37
-6.97
-8.82
-10.71
-12.38
-13.6
-14.3
-14.5
-14.31
-13.84
-13.21
-12.47
-11.69
-10.96
-10.4
-10.06
-9.94
-9.93
-9.86
-9.58
-9.05
-8.33
-7.54
-6.83
-6.28
-5.91
-5.65
-5.4
-5.09
-4.68
-4.19
-3.67
-3.17
-2.76
-2.46
-2.27
-2.18
-2.21
-2.42
-2.87
-3.63
-4.7
-6.01
-7.45
-8.85
-10.08
-11.02
-11.63
-11.91
-11.88
-11.58
-11.01
-10.14
-8.96
-7.49
-5.86
-4.23
-2.81
-1.76
-1.09
-0.72
-0.51
-0.35
-0.16
0.07
0.31
0.51
0.62
0.58
0.36
-0.05
-0.62
-1.3
-2.06
-2.82
-3.5
-4.01
-4.21
-3.96
-3.21
-2.01
-0.55
0.89
2.08
2.9
3.33
3.43
3.27
2.81
1.99
0.75
-0.86
-2.68
-4.46
-5.95
-6.99
-7.57
-7.77
-7.68
-7.36
-6.78
-5.95
-4.9
-3.8
-2.85
-2.24
-2.01
-2.05
-2.15
-2.13
-1.89
-1.48
-1.02
-0.58
-0.19
0.18
0.5
0.64
0.41
-0.3
-1.43
-2.77
-4.02
-4.95
-5.44
-5.6
-5.67
-5.9
-6.44
-7.31
-8.4
-9.59
-10.74
-11.72
-12.45
-12.97
-13.32
-13.51
-13.51
-13.3
-12.88
-12.28
-11.51
-10.59
-9.88
-9.58
-9.67
-9.97
-10.31
-10.66
-11.12
-11.83
-12.91
-14.94
-18.17
-22.29
-26.53
-30.21
-32.94
-34.71
-35.76
-36.45
-38.02
-41.18
-45.65
-50.47
-54.66
-57.73
-59.68
-60.75
-61.2
-62.33
-64.79
-68.12
-71.13
-72.75
-72.47
-70.3
-66.48
-53.95
-30.44
0.67
32.36
58.89
78.01
90.11
96.54
98.79
98.13
94.4
87.72
79
69.75
61.3
54.33
48.94
44.84
41.72
38.43
34.31
29.55
24.93
21.2
18.66
17.2
16.55
16.47
16.18
15.27
13.79
12.16
10.75
9.68
8.87
8.16
7.54
6.81
5.96
5.18
4.69
4.59
4.71
4.76
4.52
3.93
3.01
1.93
0.9
0.09
-0.47
-0.85
-1.2
-1.56
-1.89
-2.09
-2.08
-1.85
-1.41
-0.82
-0.1
0.77
1.76
2.81
3.77
4.47
4.79
4.69
4.29
3.73
3.19
2.8
2.6
2.55
2.59
2.61
2.58
2.48
2.35
2.24
2.16
2.08
1.92
1.58
1.04
0.34
-0.41
-1.05
-1.49
-1.74
-1.85
-1.89
-1.91
-1.89
-1.81
-1.73
-1.75
-1.99
-2.49
-3.18
-3.82
-4.18
-4.08
-3.55
-2.76
-1.95
-1.32
-0.92
-0.66
-0.4
-0.02
0.52
1.16
1.76
2.2
2.42
2.45
2.41
2.45
2.68
3.13
3.68
4.19
4.49
4.52
4.33
4.05
3.79
3.64
3.58
3.55
3.52
3.44
3.32
3.17
2.95
2.64
2.22
1.72
1.2
0.77
0.48
0.33
0.22
0.05
-0.27
-0.73
-1.29
-1.83
-2.3
-2.68
-3.02
-3.39
-3.84
-4.34
-4.82
-5.14
-5.21
-4.95
-4.39
-3.59
-2.65
-1.67
-0.68
0.31
1.31
2.28
3.19
3.94
4.47
4.75
4.83
4.81
4.78
4.83
4.95
5.11
5.27
5.4
5.5
5.59
5.7
5.8
5.86
5.77
5.46
4.89
4.09
3.2
2.39
1.86
1.7
1.89
2.25
2.5
2.43
1.93
1.08
0.09
-0.77
-1.34
-1.59
-1.64
-1.67
-1.83
-2.19
-2.71
-3.33
-3.92
-4.42
-4.73
-4.79
-4.54
-3.99
-3.21
-2.3
-1.35
-0.43
0.43
1.23
1.99
2.67
3.26
3.71
4.01
4.15
4.14
4
3.78
3.55
3.38
3.32
3.36
3.46
3.54
3.54
3.44
3.24
2.98
2.68
2.34
1.96
1.5
0.98
0.43
-0.09
-0.53
-0.88
-1.15
-1.39
-1.68
-2.08
-2.58
-3.12
-3.61
-3.96
-4.14
-4.13
-3.95
-3.59
-3.03
-2.24
-1.3
-0.33
0.49
1.06
1.33
1.38
1.34
1.31
1.35
1.47
1.72
2.08
2.54
3.03
3.43
3.63
3.58
3.32
2.96
2.63
2.43
2.38
2.44
2.57
2.64
2.6
2.4
2.06
1.67
1.32
1.06
0.87
0.64
0.29
-0.19
-0.71
-1.16
-1.46
-1.63
-1.79
-2.1
-2.62
-3.32
-4.06
-4.67
-5.07
-5.22
-5.16
-4.93
-4.53
-3.96
-3.24
-2.41
-1.55
-0.74
-0.04
0.56
1.09
1.62
2.18
2.75
3.3
3.75
4.03
4.09
3.92
3.57
3.18
2.89
2.82
3.02
3.4
3.8
4.04
4.03
3.81
3.52
3.28
3.16
3.08
2.92
2.58
2.05
1.45
0.9
0.5
0.24
0.02
-0.25
-0.64
-1.08
-1.47
-1.7
-1.75
-1.7
-1.71
-1.89
-2.24
-2.67
-3.01
-3.12
-2.97
-2.61
-2.13
-1.64
-1.12
-0.53
0.15
0.89
1.59
2.13
2.4
2.41
2.27
2.11
2.04
2.1
2.25
2.42
2.56
2.66
2.73
2.77
2.77
2.64
2.34
1.88
1.3
0.72
0.23
-0.11
-0.34
-0.52
-0.71
-0.95
-1.26
-1.59
-1.96
-2.34
-2.73
-3.13
-3.51
-3.81
-3.99
-4.04
-3.99
-3.89
-3.82
-3.77
-3.68
-3.45
-2.96
-2.19
-1.18
-0.07
0.99
1.87
2.5
2.9
3.13
3.28
3.43
3.61
3.75
3.77
3.6
3.22
2.71
2.19
1.75
1.44
1.23
1.08
0.96
0.87
0.84
0.86
0.85
0.73
0.42
-0.06
-0.63
-1.2
-1.7
-2.17
-2.65
-3.2
-3.77
-4.28
-4.62
-4.76
-4.72
-4.57
-4.38
-4.16
-3.85
-3.41
-2.82
-2.16
-1.51
-0.97
-0.54
-0.16
0.28
0.9
1.75
2.77
3.86
4.85
5.63
6.16
6.48
6.72
6.96
7.27
7.62
7.95
8.16
8.22
8.08
7.7
7.01
5.92
4.36
2.35
0
-2.45
-4.71
-6.48
-7.55
-7.84
-7.44
-6.54
-5.46
-4.45
-3.71
-3.28
-3.1
-3.08
-3.17
-3.34
-3.6
-3.9
-4.1
-4.03
-3.6
-2.84
-1.92
-1.06
-0.43
-0.07
0.1
0.19
0.25
0.29
0.26
0.16
0.06
0.02
0.1
0.32
0.62
0.9
1.11
1.18
1.11
0.92
0.63
0.27
-0.16
-0.66
-1.23
-1.86
-2.46
-2.91
-3.12
-3.03
-2.7
-2.24
-1.8
-1.44
-1.16
-0.86
-0.49
-0.03
0.44
0.82
1.02
1
0.8
0.51
0.18
-0.13
-0.42
-0.69
-0.9
-1.01
-0.98
-0.76
-0.31
0.34
1.17
2.12
3.09
3.97
4.66
5.09
5.26
5.2
4.97
4.62
4.19
3.72
3.26
2.89
2.66
2.6
2.65
2.73
2.73
2.61
2.39
2.15
1.95
1.84
1.79
1.74
1.66
1.56
1.49
1.5
1.56
1.6
1.49
1.12
0.5
-0.26
-0.96
-1.44
-1.62
-1.57
-1.44
-1.44
-1.72
-2.32
-3.15
-4.04
-4.82
-5.38
-5.7
-5.8
-5.73
-5.53
-5.24
-4.91
-4.59
-4.28
-3.95
-3.54
-3
-2.29
-1.48
-0.63
0.18
0.89
1.5
1.98
2.28
2.33
2.11
1.68
1.18
0.83
0.75
0.94
1.26
1.46
1.35
0.87
0.09
-0.81
-1.64
-2.3
-2.78
-3.13
-3.46
-3.78
-4.12
-4.5
-4.92
-5.41
-5.93
-6.43
-6.82
-7
-6.95
-6.68
-6.22
-5.61
-4.89
-4.08
-3.23
-2.41
-1.72
-1.2
-0.82
-0.51
-0.15
0.34
0.94
1.57
2.16
2.61
2.92
3.13
3.28
3.38
3.38
3.23
2.9
2.41
1.86
1.38
1.01
0.78
0.62
0.48
0.3
0.09
-0.13
-0.34
-0.52
-0.67
-0.84
-1.06
-1.38
-1.81
-2.35
-2.94
-3.47
-3.86
-4.07
-4.12
-4.06
-3.94
-3.74
-3.43
-2.97
-2.37
-1.71
-1.09
-0.54
0
0.62
1.38
2.26
3.14
3.88
4.38
4.64
4.7
4.69
4.67
4.65
4.63
4.53
4.35
4.08
3.78
3.49
3.24
3.03
2.84
2.67
2.5
2.36
2.24
2.14
1.99
1.71
1.25
0.64
-0.06
-0.76
-1.38
-1.89
-2.29
-2.58
-2.78
-2.94
-3.09
-3.27
-3.5
-3.73
-3.89
-3.88
-3.63
-3.15
-2.45
-1.61
-0.73
0.09
0.79
1.32
1.7
1.97
2.19
2.37
2.52
2.64
2.73
2.79
2.85
2.88
2.86
2.8
2.73
2.73
2.88
3.16
3.5
3.73
3.71
3.39
2.85
2.24
1.73
1.44
1.37
1.43
1.46
1.32
0.95
0.37
-0.3
-0.96
-1.51
-1.94
-2.26
-2.52
-2.7
-2.81
-2.84
-2.82
-2.81
-2.84
-2.89
-2.88
-2.68
-2.19
-1.41
-0.46
0.47
1.2
1.59
1.64
1.42
1.07
0.76
0.6
0.65
0.92
1.36
1.86
2.34
2.71
2.94
3.05
3.08
3.09
3.1
3.1
3.06
2.95
2.75
2.49
2.18
1.81
1.36
0.81
0.18
-0.49
-1.11
-1.61
-1.96
-2.2
-2.36
-2.46
-2.48
-2.36
-2.08
-1.68
-1.19
-0.71
-0.28
0.09
0.42
0.73
1
1.21
1.32
1.31
1.21
1.07
0.99
1.03
1.2
1.5
1.86
2.22
2.47
2.58
2.48
2.17
1.68
1.07
0.45
-0.09
-0.5
-0.78
-1.01
-1.24
-1.52
-1.82
-2.07
-2.25
-2.37
-2.5
-2.73
-3.11
-3.62
-4.16
-4.63
-4.89
-4.89
-4.62
-4.11
-3.42
-2.65
-1.87
-1.12
-0.44
0.13
0.61
0.96
1.2
1.36
1.49
1.67
1.96
2.37
2.84
3.26
3.51
3.5
3.21
2.73
2.21
1.82
1.69
1.82
2.1
2.32
2.29
1.95
1.36
0.68
0.09
-0.32
-0.54
-0.64
-0.71
-0.81
-0.97
-1.2
-1.49
-1.85
-2.25
-2.65
-2.96
-3.13
-3.14
-3.03
-2.84
-2.64
-2.47
-2.32
-2.13
-1.84
-1.39
-0.78
-0.05
0.72
1.43
2.03
2.46
2.72
2.78
2.66
2.4
2.07
1.77
1.59
1.58
1.72
1.96
2.2
2.39
2.5
2.52
2.49
2.44
2.4
2.35
2.22
1.96
1.5
0.86
0.12
-0.6
-1.17
-1.52
-1.71
-1.87
-2.13
-2.56
-3.08
-3.56
-3.84
-3.87
-3.68
-3.42
-3.19
-3.04
-2.93
-2.78
-2.56
-2.24
-1.88
-1.5
-1.1
-0.64
-0.09
0.49
1.01
1.38
1.54
1.55
1.49
1.45
1.47
1.55
1.61
1.63
1.56
1.41
1.19
0.93
0.64
0.34
0.05
-0.19
-0.33
-0.31
-0.13
0.15
0.4
0.45
0.22
-0.27
-0.89
-1.43
-1.76
-1.86
-1.82
-1.78
-1.78
-1.77
-1.62
-1.26
-0.74
-0.2
0.15
0.25
0.14
0
0.01
0.25
0.65
1.04
1.28
1.3
1.15
0.93
0.77
0.72
0.76
0.86
0.98
1.11
1.26
1.41
1.5
1.48
1.3
0.98
0.62
0.34
0.2
0.21
0.28
0.28
0.12
-0.21
-0.63
-1.07
-1.46
-1.79
-2.08
-2.35
-2.6
-2.84
-3.02
-3.13
-3.14
-3.04
-2.85
-2.58
-2.27
-1.94
-1.62
-1.29
-0.96
-0.65
-0.38
-0.18
-0.07
-0.01
0.04
0.11
0.24
0.42
0.6
0.73
0.78
0.75
0.72
0.78
1.03
1.5
2.1
2.67
3.05
3.11
2.84
2.37
1.85
1.39
1.02
0.67
0.28
-0.2
-0.73
-1.27
-1.72
-2.06
-2.25
-2.35
-2.39
-2.43
-2.49
-2.56
-2.63
-2.69
-2.71
-2.64
-2.46
-2.14
-1.69
-1.16
-0.61
-0.11
0.33
0.73
1.09
1.41
1.61
1.64
1.45
1.13
0.82
0.67
0.73
0.93
1.12
1.16
1.04
0.85
0.71
0.68
0.75
0.81
0.79
0.7
0.58
0.48
0.4
0.27
0
-0.41
-0.92
-1.37
-1.69
-1.87
-2.02
-2.27
-2.69
-3.26
-3.83
-4.24
-4.35
-4.14
-3.65
-3
-2.28
-1.57
-0.9
-0.29
0.28
0.76
1.15
1.41
1.56
1.63
1.71
1.85
2.08
2.38
2.7
2.98
3.19
3.3
3.31
3.19
2.96
2.66
2.36
2.16
2.1
2.17
2.28
2.31
2.18
1.86
1.39
0.82
0.26
-0.24
-0.63
-0.91
-1.07
-1.16
-1.19
-1.21
-1.2
-1.15
-1.03
-0.82
-0.56
-0.29
-0.07
0.08
0.19
0.31
0.52
0.84
1.25
1.72
2.17
2.53
2.74
2.73
2.49
2.02
1.42
0.86
0.49
0.42
0.62
0.94
1.2
1.26
1.06
0.65
0.16
-0.33
-0.78
-1.16
-1.52
-1.86
-2.18
-2.48
-2.7
-2.82
-2.81
-2.7
-2.55
-2.43
-2.37
-2.37
-2.36
-2.29
-2.13
-1.94
-1.8
-1.74
-1.75
-1.75
-1.65
-1.4
-1.04
-0.66
-0.37
-0.21
-0.18
-0.18
-0.16
-0.07
0.07
0.2
0.29
0.34
0.38
0.48
0.67
0.93
1.17
1.27
1.17
0.86
0.46
0.1
-0.12
-0.16
-0.09
-0.04
-0.09
-0.27
-0.53
-0.8
-1.06
-1.36
-1.77
-2.34
-3.02
-3.69
-4.22
-4.5
-4.53
-4.35
-4.04
-3.66
-3.21
-2.64
-1.97
-1.24
-0.57
-0.07
0.19
0.23
0.13
0.04
0.1
0.4
0.92
1.58
2.25
2.79
3.1
3.17
3.02
2.74
2.41
2.07
1.76
1.51
1.32
1.18
1.07
0.96
0.81
0.59
0.31
0.02
-0.24
-0.43
-0.55
-0.62
-0.7
-0.84
-1.08
-1.45
-1.89
-2.32
-2.62
-2.73
-2.64
-2.41
-2.11
-1.78
-1.44
-1.05
-0.61
-0.16
0.25
0.55
0.72
0.79
0.85
0.98
1.22
1.54
1.85
2.1
2.26
2.38
2.52
2.75
3.04
3.33
3.53
3.54
3.34
3.02
2.68
2.44
2.33
2.34
2.36
2.28
2.01
1.51
0.83
0.07
-0.67
-1.29
-1.73
-1.99
-2.07
-1.98
-1.75
-1.43
-1.07
-0.76
-0.55
-0.44
-0.37
-0.24
0.02
0.41
0.85
1.22
1.44
1.46
1.32
1.08
0.85
0.69
0.62
0.6
0.59
0.55
0.51
0.51
0.6
0.78
0.97
1.07
0.97
0.65
0.15
-0.42
-0.94
-1.36
-1.68
-1.96
-2.2
-2.42
-2.61
-2.79
-2.98
-3.2
-3.42
-3.56
-3.52
-3.23
-2.67
-1.92
-1.12
-0.43
0.04
0.27
0.33
0.3
0.27
0.28
0.33
0.43
0.61
0.85
1.14
1.39
1.52
1.47
1.28
1.07
0.96
1.04
1.26
1.5
1.59
1.42
1.01
0.42
-0.22
-0.83
-1.35
-1.72
-1.88
-1.75
-1.35
-0.77
-0.22
0.05
-0.13
-0.76
-1.68
-2.64
-3.41
-3.83
-3.93
-3.81
-3.58
-3.34
-3.12
-2.92
-2.75
-2.62
-2.51
-2.34
-2.03
-1.5
-0.75
0.1
0.86
1.37
1.57
1.53
1.43
1.45
1.65
1.98
2.28
2.37
2.2
1.84
1.44
1.17
1.1
1.18
1.3
1.31
1.14
0.79
0.35
-0.05
-0.35
-0.53
-0.63
-0.75
-0.95
-1.23
-1.55
-1.82
-2
-2.09
-2.15
-2.27
-2.45
-2.64
-2.73
-2.61
-2.26
-1.75
-1.18
-0.68
-0.3
-0.05
0.15
0.36
0.65
1.01
1.43
1.83
2.16
2.41
2.62
2.83
3.09
3.34
3.5
3.47
3.19
2.71
2.18
1.73
1.47
1.4
1.47
1.63
1.85
2.15
2.51
2.85
3.03
2.93
2.46
1.66
0.67
-0.32
-1.13
-1.63
-1.81
-1.76
-1.6
-1.48
-1.44
-1.45
-1.4
-1.15
-0.69
-0.09
0.52
0.99
1.23
1.25
1.11
0.91
0.73
0.63
0.65
0.81
1.07
1.36
1.56
1.57
1.36
1.02
0.67
0.47
0.49
0.71
1.02
1.29
1.36
1.17
0.73
0.13
-0.5
-1.01
-1.33
-1.45
-1.46
-1.5
-1.68
-2.06
-2.58
-3.12
-3.57
-3.84
-3.91
-3.83
-3.67
-3.48
-3.31
-3.13
-2.88
-2.49
-1.93
-1.23
-0.49
0.13
0.57
0.84
1.04
1.29
1.65
2.06
2.39
2.5
2.37
2.06
1.72
1.48
1.42
1.46
1.51
1.43
1.14
0.66
0.11
-0.36
-0.61
-0.58
-0.3
0.07
0.37
0.5
0.46
0.34
0.24
0.22
0.21
0.1
-0.25
-0.9
-1.8
-2.76
-3.58
-4.07
-4.15
-3.87
-3.33
-2.69
-2.09
-1.63
-1.31
-1.12
-0.97
-0.8
-0.55
-0.21
0.15
0.47
0.7
0.82
0.9
1.01
1.22
1.55
1.92
2.26
2.51
2.65
2.73
2.8
2.91
3.03
3.11
3.09
2.91
2.59
2.19
1.76
1.36
1.02
0.72
0.44
0.2
0.01
-0.09
-0.14
-0.2
-0.39
-0.78
-1.33
-1.93
-2.42
-2.7
-2.75
-2.68
-2.63
-2.67
-2.78
-2.86
-2.79
-2.5
-2.01
-1.41
-0.77
-0.15
0.4
0.89
1.29
1.57
1.68
1.64
1.47
1.26
1.1
1.04
1.1
1.27
1.5
1.75
1.98
2.14
2.22
2.21
2.14
2.03
1.9
1.74
1.53
1.24
0.9
0.57
0.3
0.13
0.05
0.03
0.02
0.02
0
-0.04
-0.1
-0.17
-0.2
-0.1
0.25
0.93
1.9
3.05
4.16
5.04
5.54
5.62
5.32
4.75
4.05
3.39
2.88
2.59
2.47
2.4
2.27
1.98
1.5
0.9
0.24
-0.39
-0.97
-1.45
-1.82
-2.03
-2.09
-2.04
-1.97
-1.98
-2.11
-2.36
-2.65
-2.93
-3.14
-3.29
-3.4
-3.47
-3.45
-3.3
-3.01
-2.65
-2.31
-2.08
-1.99
-1.95
-1.84
-1.54
-1.05
-0.46
0.05
0.35
0.42
0.33
0.22
0.21
0.33
0.54
0.75
0.91
1.03
1.13
1.26
1.41
1.55
1.6
1.49
1.18
0.68
0.09
-0.48
-0.9
-1.11
-1.13
-1.06
-1.03
-1.13
-1.33
-1.58
-1.78
-1.86
-1.83
-1.75
-1.71
-1.75
-1.87
-2.04
-2.19
-2.25
-2.2
-2.03
-1.75
-1.38
-0.89
-0.29
0.4
1.12
1.74
2.18
2.4
2.45
2.42
2.39
2.4
2.39
2.27
1.98
1.54
1.05
0.65
0.45
0.43
0.52
0.56
0.44
0.15
-0.25
-0.62
-0.83
-0.86
-0.76
-0.67
-0.74
-1.02
-1.47
-1.96
-2.34
-2.52
-2.49
-2.36
-2.27
-2.3
-2.47
-2.7
-2.87
-2.88
-2.72
-2.43
-2.1
-1.78
-1.44
-1.02
-0.47
0.18
0.85
1.4
1.77
1.98
2.1
2.25
2.44
2.65
2.81
2.87
2.85
2.79
2.71
2.61
2.4
2.05
1.55
0.98
0.45
0.05
-0.14
-0.16
-0.09
-0.02
-0.04
-0.19
-0.44
-0.74
-1.02
-1.23
-1.37
-1.49
-1.66
-1.91
-2.23
-2.54
-2.76
-2.85
-2.81
-2.67
-2.48
-2.22
-1.9
-1.51
-1.1
-0.71
-0.36
-0.02
0.35
0.79
1.28
1.71
1.99
2.03
1.84
1.52
1.21
1.05
1.05
1.18
1.34
1.47
1.53
1.53
1.49
1.42
1.31
1.13
0.94
0.79
0.72
0.74
0.74
0.61
0.29
-0.17
-0.64
-0.93
-0.96
-0.75
-0.45
-0.21
-0.08
-0.04
0
0.07
0.15
0.15
0.06
-0.07
-0.1
0.1
0.57
1.21
1.8
2.15
2.19
1.97
1.7
1.54
1.55
1.7
1.83
1.85
1.71
1.46
1.18
0.89
0.57
0.2
-0.24
-0.68
-0.98
-1.05
-0.87
-0.54
-0.23
-0.11
-0.23
-0.56
-0.96
-1.31
-1.55
-1.71
-1.85
-2.09
-2.47
-2.96
-3.46
-3.82
-3.95
-3.82
-3.51
-3.15
-2.91
-2.88
-3.03
-3.27
-3.47
-3.49
-3.27
-2.83
-2.34
-2.1
-2.49
-3.88
-6.45
-10.03
-14.02
-17.57
-19.8
-20.23
-18.92
-16.48
-13.72
-11.31
-9.51
-8.22
-7.15
-6.06
-4.87
-3.61
-2.35
-0.99
0.6
2.48
4.53
6.49
8.07
9.11
9.68
9.95
10.16
10.48
10.88
11.16
11.13
10.67
9.91
9.08
8.47
8.29
8.66
9.53
10.81
12.48
14.37
16.01
16.99
16.77
15.56
14.37
14.59
17.23
22.41
28.61
33.61
35.16
31.89
23.99
13.03
1.24
-9.38
-17.55
-22.4
-23.39
-21.23
-18.23
-17.44
-21.19
-30.06
-42.63
-55.9
-66.36
-71.29
-69.61
-61.86
-49.49
-34.2
-17.4
0.07
17.85
35.92
53.82
70.15
82.89
90.14
90.81
85.03
74.27
60.97
47.65
35.88
25.88
16.7
7.33
-2.48
-12
-20.01
-25.7
-28.61
-29.74
-29.94
-30.74
-33.38
-38.02
-43.5
-48.27
-51.29
-52.26
-51.47
-49
-44.7
-38.22
-29.9
-21.03
-13.63
-9.49
-8.99
-10.86
-12.64
-12
-7.86
-0.85
7.35
14.94
20.88
25.15
28.34
31.14
33.69
36.06
37.45
37.31
35.35
31.33
25.08
16.61
6.7
-3.05
-9.74
-10.95
-5.75
4.5
16.39
25.67
29.02
24.83
13.68
-1.92
-18.53
-32.62
-41.53
-44.11
-40.13
-31.82
-21.85
-12.39
-4.48
1.73
6.61
10.44
13.23
14.87
15.48
15.75
16.73
18.7
21.16
23.12
23.53
22.11
19.59
17.33
16.7
18.1
20.7
22.25
21.03
16.07
7.8
-2.28
-12.11
-19.91
-24.91
-26.94
-26.42
-24.1
-20.74
-17.1
-14
-12.17
-12.21
-14.4
-18.28
-22.85
-26.65
-28.29
-26.34
-21.17
-13.97
-6.23
0.84
6.81
12
16.83
21.66
26.55
31.03
34.53
36.39
35.35
31.66
25.99
19.21
12.3
6.02
0.7
-3.62
-7.04
-9.73
-11.55
-12.48
-12.6
-12.09
-11.32
-10.69
-10.45
-10.6
-10.94
-11.08
-10.8
-10.14
-9.3
-8.57
-8.23
-8.45
-8.99
-9.54
-9.7
-9.25
-8.15
-6.51
-4.53
-2.43
-0.37
1.55
3.23
4.64
5.73
6.46
6.8
6.75
6.33
5.6
4.67
3.66
2.75
2.06
1.63
1.41
1.32
1.23
1.09
0.82
0.39
-0.26
-1.16
-2.3
-3.59
-4.89
-6.09
-6.95
-7.39
-7.48
-7.38
-7.22
-7.12
-7.09
-7.03
-6.81
-6.33
-5.54
-4.51
-3.38
-2.3
-1.41
-0.73
-0.19
0.34
1.01
1.9
2.98
4.2
5.46
6.68
7.79
8.73
9.47
10.01
10.36
10.56
10.66
10.68
10.59
10.39
10.05
9.57
8.99
8.36
7.74
7.13
6.51
5.83
4.99
3.96
2.75
1.46
0.18
-0.97
-1.95
-2.75
-3.41
-3.95
-4.33
-4.5
-4.41
-4.07
-3.59
-3.09
-2.67
-2.34
-2
-1.51
-0.78
0.19
1.29
2.37
3.27
3.88
4.21
4.29
4.19
3.98
3.71
3.43
3.18
2.99
2.82
2.67
2.49
2.31
2.2
2.22
2.4
2.73
3.13
3.49
3.73
3.83
3.85
3.84
3.82
3.79
3.65
3.36
2.9
2.37
1.85
1.42
1.09
0.8
0.47
0.08
-0.35
-0.71
-0.92
-0.95
-0.85
-0.71
-0.59
-0.51
-0.42
-0.25
0.02
0.37
0.76
1.14
1.54
1.98
2.49
3.01
3.38
3.45
3.1
2.38
1.45
0.53
-0.18
-0.59
-0.75
-0.75
-0.71
-0.72
-0.82
-1.02
-1.28
-1.56
-1.8
-1.96
-2.02
-2.05
-2.08
-2.16
-2.27
-2.32
-2.27
-2.12
-1.96
-1.91
-2.05
-2.31
-2.55
-2.57
-2.25
-1.62
-0.87
-0.23
0.14
0.17
-0.02
-0.29
-0.46
-0.45
-0.26
0.05
0.4
0.76
1.12
1.5
1.89
2.27
2.6
2.79
2.8
2.61
2.23
1.73
1.16
0.54
-0.14
-0.91
-1.8
-2.79
-3.79
-4.67
-5.31
-5.66
-5.74
-5.59
-5.28
-4.85
-4.29
-3.6
-2.8
-1.97
-1.23
-0.66
-0.28
-0.04
0.18
0.45
0.78
1.08
1.21
1.06
0.65
0.07
-0.51
-0.93
-1.15
-1.2
-1.19
-1.2
-1.27
-1.38
-1.49
-1.54
-1.5
-1.38
-1.22
-1.07
-0.93
-0.83
-0.73
-0.6
-0.44
-0.27
-0.18
-0.25
-0.54
-1.01
-1.53
-1.96
-2.22
-2.26
-2.11
-1.86
-1.56
-1.27
-1.01
-0.82
-0.71
-0.71
-0.77
-0.86
-0.91
-0.92
-0.91
-0.97
-1.11
-1.29
-1.39
-1.29
-0.94
-0.48
-0.11
-0.07
-0.43
-1.11
-1.86
-2.42
-2.64
-2.57
-2.33
-2.07
-1.86
-1.64
-1.32
-0.87
-0.37
0.09
0.43
0.65
0.86
1.12
1.44
1.71
1.76
1.5
0.95
0.31
-0.24
-0.52
-0.53
-0.33
-0.06
0.19
0.41
0.6
0.75
0.8
0.66
0.26
-0.39
-1.17
-1.85
-2.24
-2.25
-1.97
-1.61
-1.42
-1.57
-2.02
-2.59
-3.04
-3.22
-3.11
-2.83
-2.51
-2.22
-1.97
-1.72
-1.47
-1.29
-1.26
-1.38
-1.61
-1.8
-1.82
-1.61
-1.24
-0.89
-0.74
-0.89
-1.31
-1.83
-2.2
-2.23
-1.86
-1.15
-0.31
0.45
1
1.33
1.49
1.57
1.59
1.49
1.23
0.81
0.33
-0.07
-0.26
-0.23
-0.07
0.04
-0.04
-0.33
-0.72
-1.05
-1.18
-1.08
-0.86
-0.65
-0.57
-0.61
-0.68
-0.64
-0.42
0.01
0.55
1.07
1.45
1.62
1.58
1.37
1.07
0.79
0.61
0.54
0.56
0.6
0.59
0.52
0.4
0.3
0.28
0.32
0.37
0.34
0.17
-0.15
-0.56
-0.94
-1.23
-1.39
-1.44
-1.44
-1.43
-1.45
-1.51
-1.59
-1.67
-1.74
-1.74
-1.68
-1.6
-1.58
-1.69
-1.98
-2.38
-2.74
-2.93
-2.85
-2.56
-2.21
-1.96
-1.9
-2
-2.12
-2.14
-2.01
-1.79
-1.56
-1.38
-1.3
-1.3
-1.39
-1.54
-1.72
-1.88
-1.93
-1.79
-1.49
-1.14
-0.93
-0.97
-1.27
-1.67
-1.95
-1.93
-1.6
-1.1
-0.64
-0.4
-0.44
-0.67
-0.94
-1.13
-1.15
-1
-0.73
-0.41
-0.09
0.17
0.28
0.21
-0.07
-0.5
-1.01
-1.5
-1.92
-2.26
-2.52
-2.7
-2.76
-2.62
-2.23
-1.6
-0.84
-0.1
0.46
0.76
0.85
0.84
0.86
0.97
1.17
1.35
1.43
1.4
1.29
1.2
1.21
1.35
1.57
1.79
1.92
1.95
1.9
1.79
1.64
1.44
1.18
0.85
0.49
0.16
-0.09
-0.25
-0.39
-0.58
-0.89
-1.31
-1.78
-2.17
-2.39
-2.4
-2.2
-1.84
-1.36
-0.82
-0.28
0.21
0.59
0.86
1.02
1.1
1.15
1.2
1.25
1.3
1.31
1.27
1.18
1.07
1.03
1.1
1.32
1.62
1.9
2.04
1.96
1.7
1.37
1.1
0.95
0.9
0.85
0.68
0.36
-0.1
-0.6
-1.05
-1.38
-1.56
-1.63
-1.61
-1.53
-1.4
-1.22
-1.01
-0.83
-0.72
-0.71
-0.81
-0.94
-0.99
-0.9
-0.68
-0.4
-0.17
-0.03
0.06
0.22
0.5
0.92
1.37
1.71
1.87
1.86
1.82
1.87
2.09
2.41
2.73
2.86
2.73
2.29
1.61
0.81
0.02
-0.61
-1.04
-1.25
-1.35
-1.46
-1.71
-2.14
-2.71
-3.29
-3.73
-3.92
-3.83
-3.54
-3.16
-2.81
-2.56
-2.42
-2.32
-2.18
-1.94
-1.62
-1.28
-1.01
-0.87
-0.84
-0.85
-0.8
-0.66
-0.44
-0.22
-0.05
0.09
0.24
0.51
0.97
1.61
2.34
3.03
3.55
3.8
3.75
3.48
3.07
2.65
2.31
2.11
2.03
2.06
2.14
2.21
2.19
2.01
1.65
1.12
0.5
-0.1
-0.6
-0.93
-1.06
-1.01
-0.81
-0.53
-0.21
0.08
0.33
0.58
0.88
1.29
1.82
2.41
2.97
3.41
3.68
3.77
3.73
3.6
3.45
3.33
3.28
3.33
3.47
3.66
3.83
3.9
3.84
3.61
3.24
2.77
2.28
1.87
1.65
1.63
1.79
2.02
2.21
2.28
2.22
2.07
1.86
1.6
1.28
0.87
0.42
-0.02
-0.37
-0.6
-0.74
-0.86
-1.04
-1.29
-1.58
-1.81
-1.91
-1.86
-1.71
-1.56
-1.5
-1.58
-1.72
-1.82
-1.74
-1.42
-0.9
-0.28
0.28
0.68
0.86
0.89
0.88
0.94
1.19
1.68
2.34
3.07
3.7
4.09
4.13
3.81
3.23
2.49
1.78
1.25
0.99
1.01
1.24
1.52
1.69
1.64
1.35
0.9
0.41
-0.02
-0.36
-0.63
-0.88
-1.14
-1.38
-1.54
-1.61
-1.6
-1.57
-1.58
-1.65
-1.75
-1.82
-1.79
-1.67
-1.5
-1.32
-1.18
-1.09
-1.01
-0.94
-0.86
-0.78
-0.69
-0.6
-0.5
-0.37
-0.21
-0.02
0.2
0.45
0.71
0.96
1.18
1.34
1.42
1.38
1.24
1
0.71
0.43
0.24
0.16
0.19
0.24
0.26
0.19
0.04
-0.17
-0.41
-0.64
-0.87
-1.12
-1.41
-1.73
-2.07
-2.4
-2.68
-2.84
-2.81
-2.55
-2.11
-1.59
-1.13
-0.84
-0.75
-0.76
-0.79
-0.74
-0.57
-0.31
0
0.29
0.56
0.78
0.99
1.19
1.43
1.69
1.95
2.13
2.14
1.97
1.68
1.37
1.18
1.21
1.39
1.64
1.83
1.89
1.88
1.89
1.99
2.16
2.3
2.29
2.05
1.61
1.09
0.62
0.27
0
-0.28
-0.67
-1.19
-1.74
-2.16
-2.33
-2.17
-1.74
-1.17
-0.61
-0.19
0.08
0.26
0.41
0.61
0.86
1.12
1.33
1.51
1.68
1.89
2.18
2.46
2.62
2.55
2.23
1.76
1.29
0.97
0.85
0.94
1.16
1.49
1.9
2.39
2.86
3.18
3.19
2.82
2.11
1.25
0.46
-0.09
-0.36
-0.41
-0.37
-0.34
-0.38
-0.48
-0.63
-0.82
-1.09
-1.5
-2.04
-2.69
-3.34
-3.86
-4.16
-4.16
-3.91
-3.45
-2.91
-2.37
-1.94
-1.65
-1.52
-1.52
-1.57
-1.58
-1.5
-1.31
-1.06
-0.83
-0.68
-0.63
-0.59
-0.5
-0.26
0.12
0.57
0.98
1.24
1.3
1.2
1.03
0.9
0.9
1.01
1.16
1.21
1.07
0.73
0.27
-0.19
-0.55
-0.78
-0.94
-1.07
-1.2
-1.33
-1.44
-1.51
-1.52
-1.51
-1.49
-1.44
-1.37
-1.3
-1.25
-1.23
-1.21
-1.16
-1.01
-0.76
-0.47
-0.23
-0.1
-0.09
-0.14
-0.16
-0.12
-0.02
0.08
0.16
0.23
0.33
0.51
0.78
1.07
1.33
1.51
1.59
1.58
1.5
1.35
1.13
0.87
0.59
0.34
0.17
0.07
0.03
0.02
-0.05
-0.23
-0.58
-1.12
-1.79
-2.47
-3.02
-3.31
-3.31
-3.07
-2.7
-2.32
-2
-1.73
-1.48
-1.2
-0.88
-0.53
-0.19
0.09
0.27
0.36
0.41
0.53
0.76
1.11
1.51
1.85
2.05
2.09
2.05
2.03
2.12
2.29
2.45
2.47
2.29
1.97
1.6
1.27
1.07
1.01
1.05
1.13
1.22
1.24
1.19
1.09
0.96
0.84
0.73
0.61
0.47
0.31
0.17
0.1
0.11
0.16
0.18
0.06
-0.19
-0.51
-0.73
-0.71
-0.39
0.17
0.85
1.49
1.97
2.22
2.27
2.17
2.04
1.95
1.96
2.02
2.09
2.1
2.05
2
2.02
2.12
2.28
2.4
2.37
2.2
1.92
1.64
1.41
1.21
0.98
0.66
0.25
-0.19
-0.56
-0.78
-0.83
-0.76
-0.61
-0.47
-0.37
-0.39
-0.54
-0.83
-1.21
-1.55
-1.72
-1.65
-1.36
-0.96
-0.61
-0.4
-0.36
-0.42
-0.48
-0.43
-0.25
0.05
0.39
0.67
0.82
0.81
0.71
0.62
0.63
0.78
1.04
1.27
1.36
1.28
1.07
0.86
0.72
0.66
0.57
0.35
-0.08
-0.68
-1.33
-1.92
-2.35
-2.65
-2.85
-3.03
-3.21
-3.39
-3.56
-3.68
-3.71
-3.66
-3.55
-3.45
-3.37
-3.3
-3.2
-3.01
-2.71
-2.33
-2
-1.8
-1.72
-1.67
-1.51
-1.15
-0.62
-0.05
0.37
0.55
0.51
0.35
0.2
0.12
0.17
0.31
0.52
0.75
0.94
1.03
0.98
0.78
0.5
0.21
-0.01
-0.12
-0.12
-0.04
0.05
0.08
0.01
-0.2
-0.54
-0.98
-1.45
-1.91
-2.31
-2.62
-2.83
-2.91
-2.85
-2.67
-2.42
-2.19
-2.02
-1.91
-1.78
-1.53
-1.1
-0.5
0.17
0.79
1.25
1.53
1.69
1.81
1.99
2.24
2.54
2.84
3.09
3.28
3.42
3.55
3.66
3.74
3.74
3.63
3.4
3.09
2.76
2.43
2.13
1.85
1.58
1.36
1.2
1.14
1.16
1.23
1.28
1.26
1.13
0.88
0.53
0.1
-0.37
-0.83
-1.22
-1.51
-1.69
-1.78
-1.83
-1.84
-1.82
-1.76
-1.62
-1.4
-1.09
-0.71
-0.29
0.12
0.44
0.59
0.53
0.29
-0.02
-0.2
-0.13
0.24
0.84
1.52
2.14
2.61
2.93
3.13
3.24
3.27
3.18
2.94
2.57
2.1
1.65
1.32
1.21
1.31
1.52
1.67
1.59
1.22
0.65
0.07
-0.33
-0.44
-0.34
-0.18
-0.1
-0.18
-0.41
-0.71
-1.03
-1.34
-1.65
-1.94
-2.17
-2.3
-2.29
-2.14
-1.87
-1.51
-1.12
-0.72
-0.36
-0.07
0.13
0.27
0.36
0.43
0.5
0.56
0.65
0.78
0.93
1.06
1.12
1.06
0.89
0.64
0.37
0.1
-0.17
-0.43
-0.66
-0.82
-0.88
-0.84
-0.78
-0.79
-0.92
-1.19
-1.52
-1.86
-2.17
-2.46
-2.79
-3.18
-3.6
-4
-4.29
-4.4
-4.3
-4.01
-3.54
-2.94
-2.23
-1.51
-0.88
-0.41
-0.12
0.08
0.33
0.74
1.3
1.87
2.28
2.41
2.29
2.13
2.14
2.46
2.99
3.53
3.8
3.68
3.27
2.74
2.3
1.99
1.76
1.49
1.12
0.7
0.33
0.12
0.09
0.17
0.26
0.3
0.27
0.21
0.16
0.1
-0.03
-0.3
-0.72
-1.27
-1.85
-2.37
-2.73
-2.84
-2.65
-2.19
-1.53
-0.8
-0.16
0.3
0.51
0.53
0.44
0.4
0.53
0.89
1.44
2.07
2.63
3
3.13
3.06
2.9
2.75
2.64
2.55
2.45
2.34
2.22
2.13
2.09
2.07
1.99
1.82
1.53
1.17
0.83
0.63
0.62
0.8
1.07
1.28
1.29
1.03
0.55
0
-0.42
-0.62
-0.61
-0.55
-0.64
-1.02
-1.67
-2.43
-3.11
-3.56
-3.76
-3.8
-3.75
-3.67
-3.54
-3.3
-2.91
-2.43
-1.95
-1.59
-1.39
-1.33
-1.31
-1.23
-1
-0.61
-0.1
0.43
0.91
1.27
1.53
1.7
1.81
1.9
1.99
2.1
2.25
2.44
2.64
2.78
2.8
2.66
2.36
1.97
1.55
1.21
0.99
0.91
0.89
0.84
0.66
0.28
-0.26
-0.84
-1.32
-1.6
-1.68
-1.67
-1.66
-1.71
-1.79
-1.85
-1.87
-1.91
-2.06
-2.33
-2.65
-2.87
-2.82
-2.38
-1.59
-0.59
0.41
1.18
1.6
1.63
1.36
0.99
0.7
0.66
0.85
1.13
1.29
1.21
0.91
0.55
0.33
0.34
0.53
0.76
0.88
0.86
0.8
0.86
1.13
1.56
1.97
2.14
1.93
1.35
0.6
-0.01
-0.24
0.03
0.7
1.49
2.07
2.22
1.96
1.53
1.32
1.65
2.63
4.1
5.75
7.24
8.35
9.06
9.4
9.47
9.32
9.09
8.98
9.24
9.99
10.97
11.54
10.88
8.42
4.21
-1.05
-6.26
-10.53
-13.6
-15.93
-18.35
-21.54
-25.56
-29.87
-33.59
-35.89
-36.38
-35.11
-32.49
-29.08
-25.46
-22.13
-19.5
-17.84
-17.19
-17.41
-18.16
-19.08
-19.85
-20.29
-20.36
-20.05
-19.31
-17.99
-15.97
-13.15
-9.62
-5.65
-1.6
2.2
5.52
8.36
10.87
13.23
15.6
18.01
20.36
22.45
24.08
25.11
25.48
25.28
24.65
23.74
22.68
21.51
20.17
18.58
16.68
14.47
12.05
9.52
6.98
4.48
2.02
-0.37
-2.63
-4.59
-6.01
-6.71
-6.61
-5.83
-4.61
-3.26
-2.07
-1.19
-0.68
-0.48
-0.51
-0.65
-0.76
-0.72
-0.47
-0.03
0.5
0.95
1.22
1.38
1.62
2.21
3.34
5
7.05
9.28
11.62
14.15
17.12
20.7
24.84
29.17
33.16
36.41
38.84
40.68
42.28
43.88
45.57
47.34
49.18
51.14
53.31
55.67
57.99
59.73
60.24
59.03
55.88
50.81
43.95
35.57
26.05
15.83
5.31
-5.18
-15.4
-25.19
-34.75
-44.35
-53.87
-62.46
-68.76
-71.58
-70.47
-66.08
-59.97
-54.58
-51.89
-52.18
-53.47
-52.63
-47.14
-36.33
-21.53
-5.21
9.21
19.06
23.64
24.68
24.95
26.69
30.95
37.69
45.89
52.33
52.18
40.79
15.68
-22.64
-70.84
-123.27
-172.95
-206.46
-211.42
-185.09
-137.63
-84.59
-37.45
-0.81
25.43
43.09
54.03
58.61
56.74
49.58
40.22
32.49
28.97
30.14
34.73
40.93
45.78
46.77
43.16
36.39
29.04
23.28
20.13
19.46
20.52
21.73
21.57
19.31
15.46
11.24
7.76
5.49
4.33
4.02
3.9
3.29
1.92
-0.01
-2.01
-3.74
-5.1
-6.12
-6.79
-7.19
-7.42
-7.6
-7.84
-8.2
-8.71
-9.31
-9.83
-10.07
-9.93
-9.39
-8.58
-7.6
-6.52
-5.38
-4.22
-3.13
-2.26
-1.78
-1.77
-2.2
-2.88
-3.63
-4.23
-4.56
-4.52
-4.13
-3.41
-2.47
-1.41
-0.34
0.65
1.53
2.26
2.87
3.37
3.81
4.22
4.63
5.04
5.43
5.78
6.07
6.29
6.44
6.48
6.36
6.06
5.62
5.17
4.81
4.58
4.42
4.24
3.93
3.51
3.02
2.56
2.18
1.86
1.57
1.26
0.92
0.56
0.19
-0.19
-0.56
-0.9
-1.17
-1.35
-1.47
-1.59
-1.79
-2.11
-2.49
-2.84
-3.04
-3.04
-2.84
-2.5
-2.1
-1.74
-1.44
-1.18
-0.92
-0.6
-0.21
0.22
0.62
0.9
1
0.89
0.55
0.05
-0.52
-1.02
-1.3
-1.28
-0.95
-0.45
0.05
0.39
0.53
0.55
0.6
0.75
1.01
1.27
1.39
1.31
1.03
0.66
0.32
0.02
-0.25
-0.6
-1.07
-1.64
-2.15
-2.42
-2.34
-1.87
-1.18
-0.47
0.06
0.33
0.41
0.44
0.57
0.86
1.26
1.67
1.99
2.16
2.2
2.16
2.06
1.95
1.82
1.7
1.6
1.54
1.52
1.49
1.41
1.22
0.92
0.53
0.07
-0.43
-0.96
-1.51
-2.05
-2.5
-2.79
-2.88
-2.8
-2.62
-2.44
-2.32
-2.33
-2.45
-2.67
-2.95
-3.23
-3.48
-3.65
-3.69
-3.63
-3.49
-3.35
-3.25
-3.2
-3.2
-3.23
-3.28
-3.33
-3.38
-3.42
-3.44
-3.43
-3.37
-3.25
-3.09
-2.91
-2.72
-2.54
-2.33
-2.08
-1.77
-1.41
-1.03
-0.71
-0.53
-0.51
-0.67
-0.96
-1.36
-1.8
-2.21
-2.51
-2.63
-2.51
-2.18
-1.72
-1.27
-0.95
-0.79
-0.79
-0.89
-1.05
-1.24
-1.49
-1.79
-2.12
-2.45
-2.74
-2.94
-3.05
-3.03
-2.85
-2.52
-2.09
-1.62
-1.18
-0.78
-0.37
0.12
0.75
1.47
2.18
2.76
3.14
3.31
3.36
3.35
3.35
3.36
3.36
3.31
3.19
2.99
2.76
2.55
2.43
2.46
2.6
2.75
2.77
2.53
2.03
1.36
0.71
0.27
0.1
0.17
0.37
0.55
0.62
0.5
0.17
-0.38
-1.09
-1.86
-2.56
-3.06
-3.31
-3.36
-3.31
-3.24
-3.19
-3.09
-2.91
-2.61
-2.23
-1.83
-1.48
-1.21
-1
-0.81
-0.6
-0.32
0.05
0.51
0.99
1.41
1.72
1.89
1.98
2.04
2.16
2.33
2.54
2.73
2.85
2.87
2.78
2.62
2.38
2.11
1.83
1.56
1.33
1.13
0.95
0.78
0.6
0.38
0.09
-0.29
-0.76
-1.24
-1.65
-1.9
-1.96
-1.88
-1.8
-1.83
-2.03
-2.32
-2.54
-2.57
-2.33
-1.88
-1.38
-0.95
-0.66
-0.46
-0.23
0.1
0.54
0.99
1.32
1.46
1.46
1.43
1.54
1.86
2.32
2.76
2.95
2.77
2.23
1.5
0.8
0.32
0.11
0.1
0.16
0.21
0.2
0.15
0.06
-0.1
-0.38
-0.82
-1.37
-1.95
-2.42
-2.72
-2.83
-2.79
-2.69
-2.57
-2.48
-2.39
-2.3
-2.17
-2
-1.76
-1.46
-1.1
-0.68
-0.24
0.18
0.58
0.93
1.24
1.55
1.85
2.13
2.32
2.39
2.32
2.15
1.95
1.81
1.75
1.74
1.75
1.71
1.63
1.56
1.51
1.48
1.42
1.28
1.01
0.64
0.22
-0.16
-0.48
-0.73
-0.98
-1.27
-1.6
-1.94
-2.2
-2.35
-2.36
-2.28
-2.15
-2.01
-1.87
-1.68
-1.44
-1.13
-0.79
-0.44
-0.12
0.15
0.38
0.58
0.77
0.98
1.2
1.39
1.53
1.57
1.53
1.44
1.36
1.34
1.41
1.54
1.71
1.85
1.93
1.94
1.88
1.76
1.59
1.38
1.14
0.89
0.66
0.46
0.28
0.1
-0.14
-0.47
-0.87
-1.3
-1.67
-1.96
-2.21
-2.51
-2.94
-3.5
-4
-4.23
-4.02
-3.35
-2.4
-1.44
-0.71
-0.3
-0.1
0.07
0.36
0.8
1.29
1.69
1.9
1.94
1.91
1.92
2.03
2.2
2.33
2.35
2.25
2.13
2.11
2.26
2.55
2.83
2.96
2.83
2.43
1.9
1.38
1.01
0.84
0.82
0.84
0.79
0.6
0.23
-0.3
-0.92
-1.53
-2.04
-2.39
-2.57
-2.61
-2.54
-2.45
-2.41
-2.46
-2.55
-2.61
-2.56
-2.36
-2.07
-1.79
-1.62
-1.52
-1.41
-1.14
-0.64
0.01
0.66
1.15
1.39
1.45
1.44
1.43
1.46
1.47
1.44
1.4
1.43
1.6
1.89
2.23
2.47
2.49
2.3
1.95
1.57
1.25
1.03
0.89
0.77
0.64
0.46
0.21
-0.14
-0.62
-1.2
-1.82
-2.36
-2.7
-2.81
-2.69
-2.46
-2.19
-1.97
-1.81
-1.7
-1.61
-1.48
-1.26
-0.93
-0.45
0.13
0.7
1.15
1.38
1.41
1.29
1.13
1.04
1.04
1.15
1.33
1.56
1.81
2.03
2.12
2.04
1.75
1.33
0.91
0.59
0.44
0.4
0.38
0.26
0.03
-0.28
-0.6
-0.86
-1.07
-1.25
-1.41
-1.55
-1.64
-1.67
-1.68
-1.7
-1.76
-1.84
-1.86
-1.76
-1.52
-1.16
-0.77
-0.44
-0.21
-0.07
0.01
0.07
0.14
0.2
0.28
0.35
0.45
0.57
0.7
0.83
0.89
0.84
0.66
0.37
0.06
-0.17
-0.23
-0.12
0.07
0.22
0.21
0
-0.36
-0.77
-1.12
-1.37
-1.52
-1.59
-1.62
-1.64
-1.67
-1.73
-1.82
-1.92
-1.96
-1.89
-1.62
-1.13
-0.47
0.29
1.05
1.72
2.29
2.73
3.08
3.33
3.48
3.53
3.41
3.13
2.67
2.1
1.53
1.09
0.85
0.81
0.88
0.93
0.83
0.57
0.2
-0.19
-0.52
-0.76
-0.93
-1.07
-1.18
-1.24
-1.25
-1.25
-1.34
-1.61
-2.06
-2.58
-2.98
-3.09
-2.82
-2.22
-1.46
-0.76
-0.29
-0.09
-0.12
-0.23
-0.24
-0.05
0.36
0.91
1.46
1.88
2.1
2.11
1.99
1.82
1.67
1.6
1.62
1.69
1.75
1.74
1.63
1.4
1.11
0.8
0.5
0.21
-0.09
-0.4
-0.69
-0.88
-0.91
-0.76
-0.54
-0.37
-0.39
-0.64
-1.09
-1.58
-1.97
-2.15
-2.09
-1.88
-1.63
-1.4
-1.23
-1.1
-0.97
-0.8
-0.58
-0.28
0.11
0.58
1.08
1.5
1.74
1.75
1.55
1.26
1.03
0.98
1.1
1.3
1.46
1.48
1.37
1.2
1.08
1.06
1.12
1.17
1.12
0.98
0.77
0.59
0.5
0.46
0.38
0.16
-0.22
-0.69
-1.11
-1.32
-1.3
-1.09
-0.88
-0.83
-1.04
-1.51
-2.08
-2.55
-2.79
-2.73
-2.44
-2.04
-1.63
-1.22
-0.79
-0.31
0.21
0.7
1.05
1.2
1.18
1.06
0.95
0.92
0.99
1.13
1.32
1.52
1.71
1.87
1.92
1.86
1.67
1.43
1.23
1.13
1.15
1.24
1.31
1.29
1.14
0.86
0.47
0
-0.54
-1.09
-1.59
-1.94
-2.09
-2.05
-1.91
-1.8
-1.79
-1.88
-1.99
-2.01
-1.86
-1.55
-1.16
-0.8
-0.52
-0.33
-0.16
0.1
0.49
0.99
1.5
1.9
2.07
2
1.76
1.47
1.27
1.27
1.46
1.77
2.04
2.17
2.11
1.89
1.61
1.36
1.17
1.02
0.86
0.69
0.53
0.41
0.36
0.3
0.15
-0.16
-0.63
-1.14
-1.56
-1.8
-1.9
-1.94
-2.07
-2.34
-2.73
-3.12
-3.38
-3.44
-3.3
-3.03
-2.69
-2.32
-1.86
-1.24
-0.45
0.44
1.25
1.78
1.9
1.64
1.18
0.74
0.55
0.68
1.12
1.74
2.39
2.92
3.24
3.28
3.06
2.65
2.17
1.76
1.5
1.44
1.51
1.6
1.61
1.45
1.16
0.8
0.48
0.28
0.19
0.14
0.07
-0.08
-0.32
-0.63
-0.99
-1.37
-1.77
-2.19
-2.6
-2.96
-3.21
-3.26
-3.07
-2.63
-2.01
-1.32
-0.69
-0.22
0.04
0.15
0.18
0.27
0.47
0.81
1.24
1.68
2.04
2.27
2.41
2.51
2.66
2.86
3.04
3.08
2.86
2.34
1.63
0.91
0.4
0.22
0.35
0.67
0.99
1.17
1.11
0.84
0.42
-0.03
-0.4
-0.64
-0.74
-0.76
-0.76
-0.79
-0.86
-1.01
-1.26
-1.62
-2.11
-2.68
-3.2
-3.52
-3.52
-3.17
-2.54
-1.8
-1.08
-0.46
0.06
0.5
0.91
1.24
1.45
1.48
1.33
1.06
0.79
0.65
0.69
0.92
1.25
1.59
1.83
1.94
1.92
1.82
1.68
1.55
1.43
1.32
1.18
0.98
0.72
0.4
0.07
-0.21
-0.38
-0.43
-0.39
-0.34
-0.36
-0.52
-0.79
-1.13
-1.45
-1.71
-1.88
-1.99
-2.07
-2.16
-2.26
-2.38
-2.51
-2.62
-2.7
-2.72
-2.64
-2.43
-2.07
-1.57
-0.98
-0.42
0.01
0.27
0.37
0.4
0.45
0.59
0.83
1.11
1.36
1.55
1.69
1.81
1.94
2.01
1.95
1.7
1.26
0.74
0.3
0.06
0.05
0.2
0.39
0.53
0.6
0.65
0.74
0.93
1.16
1.35
1.36
1.1
0.59
-0.09
-0.79
-1.4
-1.85
-2.12
-2.26
-2.31
-2.27
-2.12
-1.81
-1.36
-0.79
-0.21
0.26
0.56
0.66
0.65
0.63
0.72
0.96
1.32
1.67
1.9
1.95
1.82
1.61
1.39
1.21
1.06
0.9
0.74
0.6
0.55
0.61
0.75
0.87
0.88
0.73
0.43
0.06
-0.25
-0.42
-0.42
-0.31
-0.14
0
0.02
-0.12
-0.43
-0.89
-1.41
-1.88
-2.15
-2.12
-1.79
-1.22
-0.55
0.08
0.57
0.89
1.05
1.07
0.99
0.82
0.63
0.48
0.47
0.61
0.89
1.19
1.43
1.5
1.41
1.17
0.88
0.63
0.53
0.6
0.81
1.06
1.24
1.26
1.11
0.86
0.58
0.32
0.09
-0.13
-0.34
-0.53
-0.68
-0.79
-0.94
-1.25
-1.83
-2.69
-3.7
-4.59
-5.05
-4.93
-4.23
-3.15
-1.99
-1.04
-0.46
-0.23
-0.23
-0.3
-0.32
-0.24
-0.05
0.24
0.6
1.02
1.4
1.66
1.68
1.44
0.97
0.43
-0.01
-0.21
-0.14
0.13
0.44
0.66
0.72
0.61
0.42
0.21
0.03
-0.17
-0.43
-0.76
-1.1
-1.33
-1.35
-1.14
-0.79
-0.47
-0.35
-0.52
-0.93
-1.41
-1.8
-1.99
-1.98
-1.82
-1.58
-1.32
-1.01
-0.62
-0.13
0.46
1.06
1.6
1.98
2.15
2.1
1.88
1.6
1.37
1.3
1.43
1.72
2.06
2.33
2.46
2.47
2.42
2.35
2.28
2.14
1.86
1.42
0.85
0.26
-0.26
-0.63
-0.86
-0.99
-1.06
-1.11
-1.13
-1.14
-1.2
-1.34
-1.58
-1.91
-2.26
-2.57
-2.82
-3
-3.11
-3.12
-2.99
-2.69
-2.24
-1.71
-1.23
-0.9
-0.73
-0.64
-0.5
-0.19
0.31
0.92
1.51
1.99
2.32
2.58
2.87
3.24
3.67
4.03
4.18
4.02
3.57
2.96
2.35
1.86
1.52
1.28
1.06
0.8
0.54
0.33
0.24
0.26
0.32
0.3
0.14
-0.15
-0.48
-0.74
-0.88
-0.92
-0.94
-1.01
-1.14
-1.3
-1.44
-1.5
-1.48
-1.39
-1.28
-1.16
-1.07
-1.03
-1.08
-1.25
-1.51
-1.77
-1.9
-1.78
-1.38
-0.78
-0.14
0.36
0.61
0.6
0.45
0.27
0.17
0.14
0.15
0.12
0.02
-0.11
-0.2
-0.21
-0.1
0.08
0.28
0.46
0.6
0.69
0.74
0.76
0.7
0.54
0.25
-0.16
-0.63
-1.06
-1.34
-1.45
-1.42
-1.33
-1.24
-1.18
-1.09
-0.93
-0.65
-0.31
0.03
0.32
0.55
0.77
1.01
1.31
1.6
1.8
1.83
1.6
1.1
0.39
-0.39
-1.02
-1.25
-0.84
0.29
2.04
4.13
6.19
7.83
8.8
8.95
8.23
6.67
4.38
1.57
-1.44
-4.28
-6.59
-8.11
-8.72
-8.43
-7.36
-5.72
-3.75
-1.71
0.1
1.4
2
1.84
0.99
-0.41
-2.13
-3.9
-5.46
-6.66
-7.35
-7.44
-6.88
-5.7
-4.11
-2.33
-0.66
0.67
1.31
0.98
-0.41
-2.72
-5.63
-8.69
-11.4
-13.33
-14.22
-14.43
-14.5
-14.98
-16.11
-17.81
-19.7
-21.17
-21.61
-20.61
-18.59
-16.28
-14.51
-13.84
-14.53
-16.49
-19.26
-21.96
-21.33
-15.04
-2.71
13.81
31.73
48.15
60.46
66.78
66.45
60.27
49.82
37.25
24.58
13.35
4.26
-2.85
-8.63
-13.83
-18.85
-24.02
-28.61
-31.5
-31.52
-28.15
-21.81
-13.79
-5.72
0.97
5.25
6.77
5.52
1.59
-4.9
-13.8
-24.52
-35.95
-46.53
-54.82
-58.97
-58.01
-51.92
-41.5
-28.05
-13.01
2.16
16
26.99
33.78
35.36
31.59
23.4
12.71
1.95
-6.49
-10.78
-9.99
-4.22
5.44
17.34
29.65
40.94
50.42
57.98
63.95
68.72
72.47
75.07
76.2
75.63
73.4
69.87
65.49
60.63
55.5
50.14
44.49
38.41
31.7
24.39
16.78
9.45
2.96
-2.44
-6.97
-11.3
-16.18
-22.07
-28.64
-34.87
-39.51
-41.61
-40.81
-37.26
-31.56
-24.44
-17.91
-15.17
-19.21
-31.16
-49.57
-70.69
-89.51
-101.22
-102.82
-94.03
-77.09
-55.64
-33.46
-13.33
3.22
15.73
24.29
29.26
31.29
31.64
32.06
33.96
37.53
41.34
43.01
40.63
34.08
25.22
17.11
12.69
12.69
16.15
20.82
24.32
25.08
22.7
17.78
11.45
5.05
-0.13
-2.97
-2.92
-0.3
3.64
6.99
7.84
5.12
-0.94
-8.76
-15.95
-20.29
-20.63
-17.21
-11.49
-5.4
-0.56
2.08
2.4
0.98
-1.18
-3.08
-3.93
-3.37
-1.43
1.61
5
7.84
9.3
8.75
5.88
0.89
-5.37
-11.45
-15.54
-16.59
-14.57
-10.31
-5.28
-1.24
0.27
-1.61
-6.88
-14.33
-22.79
-31.12
-38.24
-43.4
-46.65
-48.8
-51.23
-55.28
-58.2
-58.28
-55.63
-51.25
-45.67
-38.48
-29.07
-17.49
-4.8
7.73
19.77
31.11
42.13
53.8
67.04
82.13
98.64
110.49
113.79
107.06
91.89
71.91
50.91
31.47
14.64
0.42
-11.57
-20.62
-26.24
-28.4
-27.65
-25.15
-22.34
-20.55
-20.45
-22.32
-24.6
-25.91
-25.45
-23.14
-19.49
-15.34
-11.54
-8.69
-7.04
-6.09
-5.32
-4.4
-3.22
-1.9
-0.75
-0.04
0.03
-0.58
-1.4
-2.04
-2.23
-1.94
-1.32
-0.66
-0.16
0.13
0.29
0.56
0.99
1.52
1.99
2.23
2.2
1.97
1.67
1.37
1.06
0.69
0.21
-0.34
-0.89
-1.38
-1.78
-2.1
-2.33
-2.41
-2.3
-2
-1.61
-1.3
-1.22
-1.36
-1.59
-1.71
-1.52
-0.99
-0.21
0.58
1.17
1.4
1.24
0.71
-0.06
-0.98
-1.89
-2.64
-3.08
-3.09
-2.68
-1.94
-1.05
-0.22
0.48
1.1
1.9
3.17
5.13
7.76
10.79
13.69
15.91
16.99
16.73
15.2
12.62
9.33
5.68
1.97
-1.57
-4.73
-7.42
-9.58
-11.22
-12.34
-12.93
-12.97
-12.5
-11.64
-10.61
-9.71
-9.19
-9.12
-9.39
-9.68
-9.6
-8.86
-7.42
-5.63
-4.12
-3.58
-4.41
-6.49
-9.16
-11.45
-12.52
-12
-10.14
-7.62
-5.21
-3.5
-2.79
-3.16
-4.59
-6.94
-9.81
-12.36
-13.53
-12.41
-8.83
-3.65
1.53
4.99
5.83
4.4
2.14
0.8
1.59
4.62
9.01
13.56
17.34
20.03
21.81
22.97
23.54
23.27
21.82
19.21
15.9
12.73
10.49
9.59
9.82
10.55
10.98
10.57
9.21
7.29
5.36
3.88
3.01
2.6
2.34
1.94
1.3
0.51
-0.15
-0.42
-0.24
0.22
0.75
1.14
1.32
1.33
1.25
1.35
1.8
2.51
3.25
3.78
4.03
4.11
4.2
4.48
5.3
6.78
8.65
10.4
11.6
12.07
11.9
11.29
10.49
10.1
10.58
12.03
14.17
16.56
18.79
20.46
21.32
18.99
12.61
3.5
-5.64
-12.61
-16.78
-18.72
-19.42
-19.84
-20.57
-21.4
-21.77
-21.22
-19.49
-16.47
-12.29
-7.3
-2
3.08
7.75
12.22
15.78
17.45
16.51
12.94
7.48
1.46
-3.7
-6.79
-7.28
-5.57
-2.65
0.48
3.18
5.05
5.77
4.92
1.55
-4.33
-11.95
-19.87
-26.29
-29.61
-29.06
-24.91
-18.32
-10.69
-3.34
3.36
9.01
13.2
15.53
15.59
13.27
8.9
3.26
-2.53
-7.45
-11.02
-13.26
-14.2
-14.25
-14.04
-14.14
-14.82
-15.96
-17.06
-17.63
-17.25
-15.84
-13.85
-11.84
-10.29
-9.26
-8.43
-7.37
-5.8
-3.65
-0.89
2.46
6.49
11.12
15.93
20.04
22.42
22.33
19.75
15.44
10.53
6.04
2.5
0.07
-1.24
-1.26
0.41
3.86
8.59
13.55
17.63
19.96
20.37
19.27
17.37
15.35
13.59
12.14
10.8
9.27
7.22
4.46
1.06
-2.7
-6.37
-9.53
-11.87
-13.33
-14.07
-14.4
-14.63
-14.87
-15.08
-15.08
-14.71
-13.96
-13.08
-12.12
-11.16
-10.21
-9.2
-8.09
-6.88
-5.68
-4.56
-3.57
-2.6
-1.6
-0.52
0.62
1.68
2.49
2.94
2.95
2.57
1.92
1.15
0.43
-0.15
-0.59
-1
-1.53
-2.28
-3.2
-4.14
-4.91
-5.41
-5.43
-5
-4.19
-3.12
-1.86
-0.46
1.01
2.45
3.73
4.8
5.62
6.22
6.66
6.96
7.1
7.04
6.76
6.29
5.73
5.16
4.66
4.3
4.14
4.22
4.57
5.16
5.88
6.54
6.9
6.77
6.09
5
3.78
2.71
1.99
1.52
1
0
-1.8
-4.52
-7.97
-11.74
-15.32
-18.33
-20.72
-22.68
-24.56
-26.47
-28.13
-28.89
-27.9
-24.62
-19.11
-12.1
-4.5
3.16
10.8
18.39
25.5
31.24
34.59
35.07
33.1
29.84
26.6
23.96
21.39
17.96
13.43
9.04
7.17
9.99
17.94
29.01
38.76
41.75
33.9
14.6
-12.67
-41.47
-64.59
-76.61
-75.14
-61.56
-40.19
-16.32
5.68
23.14
34.67
39.63
35.47
21.91
2.53
-16.74
-30.97
-37.76
-37.07
-30.6
-20.91
-10.92
-2.58
3.1
5.91
6.4
5.86
5.82
7.34
10.97
15.93
21.42
26.76
31.39
34.99
37.46
38.62
36.8
31.74
23.47
13.12
2.6
-6.05
-11.31
-12.72
-10.96
-7.64
-4.46
-2.87
-3.38
-5.67
-9.17
-13.25
-17.21
-20.37
-22.18
-22.18
-20.38
-17.35
-13.36
-9.34
-6.18
-4.42
-4.12
-5.12
-6.96
-9.08
-10.6
-10.01
-6.59
-0.53
6.89
13.33
16.08
13.29
5.17
-5.8
-15.27
-20.05
-18.91
-12.56
-3.36
5.78
12.29
14.62
11.56
2.55
-14.44
-41.36
-76.56
-112.92
-139.79
-147.99
-133.98
-105.78
-68.18
-26.25
15.67
55.25
89.94
116.82
133.64
139.82
136.08
125.11
109.54
92.06
75.17
60.42
48.25
35.32
21.02
6.72
-4.96
-13
-17.47
-18.78
-17.56
-14.65
-11.13
-7.8
-5.6
-4.88
-5.89
-8.17
-10.68
-12.37
-12.63
-11.57
-9.45
-7.02
-4.88
-3.66
-3.58
-4.39
-5.43
-5.74
-4.35
-0.57
4.94
10.46
13.78
13.26
8.75
1.75
-5.32
-10.29
-12.03
-10.93
-8.65
-6.87
-6.44
-7.23
-8.57
-9.74
-10.33
-10.2
-9.41
-8.2
-6.93
-6.04
-6.04
-7.27
-9.72
-13.03
-16.74
-20.35
-23.48
-25.74
-26.78
-26.15
-23.46
-18.53
-11.65
-3.65
4.18
10.44
14.17
15.25
14.39
12.83
11.7
11.51
11.98
12.35
11.9
10.5
8.67
7.3
7.09
8.06
9.57
10.58
10.17
7.97
4.34
0.17
-3.58
-6.18
-7.46
-7.63
-7.14
-6.27
-5.19
-3.96
-2.48
-0.64
1.68
4.15
6.42
8.06
8.67
8.03
6.3
4.06
2.11
1.44
2.12
3.94
6.42
9.03
11.37
13.39
15.33
16.9
18.06
18.66
18.67
18.11
17.08
15.75
14.37
13.06
11.83
10.61
9.21
7.54
5.65
3.72
1.95
0.56
-0.37
-0.87
-1.01
-0.94
-0.74
-0.51
-0.32
-0.22
-0.26
-0.49
-0.9
-1.42
-1.98
-2.5
-2.91
-3.17
-3.26
-3.21
-3.09
-3.02
-3.1
-3.37
-3.84
-4.44
-5.08
-5.65
-6.03
-6.14
-5.9
-5.28
-4.32
-3.19
-2.08
-1.19
-0.62
-0.33
-0.19
-0.04
0.23
0.61
1.01
1.33
1.57
1.76
1.97
2.27
2.62
2.95
3.17
3.23
3.1
2.85
2.52
2.14
1.76
1.42
1.19
1.15
1.31
1.61
1.89
1.93
1.48
0.38
-1.47
-3.99
-6.94
-9.98
-12.66
-14.58
-15.49
-15.35
-14.35
-12.79
-11.02
-9.3
-7.75
-6.43
-5.35
-4.52
-3.92
-3.56
-3.46
-3.59
-3.96
-4.5
-5.1
-5.61
-5.82
-5.62
-5.05
-4.33
-3.8
-3.8
-4.53
-5.93
-7.65
-9.16
-9.91
-9.51
-7.88
-5.32
-2.39
0.27
2.09
2.75
2.18
0.59
-1.57
-3.71
-5.15
-5.29
-3.69
-0.3
4.54
10.15
15.59
19.93
22.42
22.63
20.51
16.42
11.01
5.11
-0.4
-4.82
-7.74
-9.08
-9.03
-7.96
-6.26
-4.33
-2.48
-0.99
-0.09
0.12
-0.38
-1.44
-2.8
-4.19
-5.39
-6.29
-6.87
-7.19
-7.26
-7.07
-6.55
-5.67
-4.49
-3.16
-1.9
-0.9
-0.28
0.02
0.13
0.22
0.36
0.53
0.63
0.58
0.33
-0.03
-0.33
-0.41
-0.19
0.28
0.82
1.26
1.44
1.29
0.85
0.29
-0.19
-0.44
-0.45
-0.23
0.12
0.51
0.83
0.95
0.84
0.54
0.17
-0.17
-0.37
-0.41
-0.39
-0.54
-1.03
-1.84
-2.72
-3.43
-3.79
-3.79
-3.6
-3.48
-3.99
-5.38
-7.37
-9.33
-10.68
-11.15
-10.81
-10
-9.29
-9.83
-12.26
-16.17
-20.41
-23.9
-26.01
-26.77
-26.74
-26.88
-29.1
-34.36
-41.87
-49.62
-55.72
-59.15
-59.85
-58.5
-56.11
-55.02
-56.51
-60.07
-64.07
-67.05
-68
-65.76
-58.67
-37.46
-0.26
44.77
84.56
109.98
118.72
113.54
99.78
83.21
68.06
54.82
42.68
31.32
21.5
14.28
10.37
9.73
11.13
13.39
14.22
12.39
8.6
4.83
2.92
3.66
6.76
11.24
15.85
18.85
19.39
17.87
15.51
13.45
12.29
11.9
11.94
12.04
11.52
10.04
7.74
5.15
2.81
1.08
0.12
-0.08
0.31
0.87
1.31
1.57
1.77
2.07
2.51
2.99
3.37
3.53
3.38
2.95
2.3
1.57
0.88
0.3
-0.12
-0.37
-0.49
-0.53
-0.54
-0.59
-0.72
-0.92
-1.16
-1.42
-1.65
-1.86
-2.04
-2.22
-2.36
-2.44
-2.41
-2.22
-1.82
-1.18
-0.33
0.7
1.78
2.74
3.39
3.6
3.36
2.79
2.08
1.43
0.97
0.72
0.63
0.63
0.65
0.68
0.74
0.83
0.98
1.17
1.39
1.59
1.76
1.89
2.02
2.19
2.4
2.63
2.79
2.76
2.45
1.87
1.08
0.29
-0.29
-0.54
-0.41
-0.05
0.34
0.54
0.44
0.06
-0.51
-1.12
-1.68
-2.12
-2.39
-2.48
-2.36
-2.02
-1.5
-0.85
-0.16
0.48
1
1.37
1.57
1.63
1.59
1.52
1.46
1.41
1.35
1.25
1.12
0.98
0.91
0.93
1.03
1.18
1.32
1.43
1.51
1.57
1.63
1.65
1.59
1.41
1.08
0.63
0.12
-0.4
-0.88
-1.31
-1.74
-2.18
-2.62
-3.02
-3.28
-3.35
-3.23
-3.01
-2.8
-2.7
-2.74
-2.87
-2.99
-3
-2.84
-2.47
-1.93
-1.26
-0.51
0.24
0.9
1.41
1.73
1.87
1.85
1.7
1.47
1.22
1.03
0.94
1
1.2
1.49
1.81
2.12
2.39
2.61
2.74
2.71
2.46
1.97
1.34
0.73
0.31
0.18
0.25
0.37
0.33
0.04
-0.44
-0.98
-1.38
-1.53
-1.45
-1.26
-1.11
-1.14
-1.37
-1.7
-2
-2.13
-2.02
-1.7
-1.28
-0.9
-0.6
-0.36
-0.08
0.31
0.81
1.29
1.6
1.66
1.48
1.19
0.96
0.89
0.97
1.12
1.29
1.43
1.6
1.82
2.1
2.38
2.56
2.59
2.48
2.26
2
1.73
1.48
1.23
0.96
0.64
0.24
-0.21
-0.7
-1.14
-1.47
-1.65
-1.7
-1.69
-1.7
-1.78
-1.96
-2.19
-2.4
-2.5
-2.39
-2.03
-1.43
-0.7
0
0.53
0.8
0.86
0.8
0.74
0.74
0.79
0.81
0.73
0.56
0.33
0.19
0.23
0.54
1.08
1.76
2.43
2.93
3.18
3.18
2.96
2.62
2.22
1.81
1.4
1.02
0.67
0.37
0.12
-0.14
-0.43
-0.82
-1.29
-1.84
-2.42
-2.98
-3.43
-3.69
-3.64
-3.25
-2.56
-1.69
-0.81
-0.04
0.53
0.9
1.1
1.16
1.11
0.98
0.81
0.7
0.72
0.9
1.18
1.47
1.69
1.78
1.74
1.63
1.47
1.32
1.18
1.1
1.13
1.29
1.55
1.81
1.94
1.87
1.61
1.26
0.96
0.76
0.66
0.54
0.32
-0.06
-0.58
-1.16
-1.75
-2.28
-2.71
-3.03
-3.22
-3.27
-3.2
-3
-2.66
-2.13
-1.42
-0.57
0.29
1.02
1.53
1.81
1.93
2.01
2.09
2.14
2.11
1.94
1.66
1.4
1.27
1.34
1.56
1.82
1.99
1.97
1.75
1.43
1.13
0.95
0.95
1.12
1.4
1.68
1.9
1.98
1.9
1.67
1.34
0.96
0.59
0.29
0.11
0.04
-0.02
-0.2
-0.6
-1.23
-1.93
-2.49
-2.69
-2.45
-1.87
-1.16
-0.53
-0.1
0.15
0.31
0.49
0.73
1.01
1.26
1.47
1.64
1.79
1.95
2.11
2.25
2.34
2.37
2.36
2.34
2.39
2.58
2.95
3.44
3.92
4.21
4.18
3.77
3.03
2.14
1.28
0.59
0.13
-0.16
-0.36
-0.55
-0.75
-0.96
-1.18
-1.4
-1.67
-1.98
-2.29
-2.52
-2.52
-2.17
-1.44
-0.42
0.68
1.65
2.39
2.89
3.22
3.43
3.53
3.46
3.22
2.88
2.59
2.51
2.7
3.08
3.46
3.66
3.61
3.38
3.11
2.93
2.89
2.92
2.98
3.02
3.04
3.05
3.01
2.84
2.47
1.84
0.99
0
-1.01
-1.97
-2.86
-3.73
-4.63
-5.58
-6.52
-7.38
-8.04
-8.4
-8.38
-7.97
-7.2
-6.12
-4.82
-3.4
-1.94
-0.53
0.69
1.65
2.26
2.57
2.67
2.74
2.86
3.04
3.2
3.22
3.04
2.7
2.31
1.98
1.75
1.59
1.41
1.18
0.91
0.66
0.47
0.33
0.15
-0.19
-0.74
-1.48
-2.33
-3.13
-3.77
-4.18
-4.41
-4.56
-4.74
-5.01
-5.37
-5.75
-6.08
-6.3
-6.38
-6.33
-6.15
-5.82
-5.33
-4.73
-4.1
-3.55
-3.13
-2.85
-2.62
-2.34
-1.97
-1.5
-1.04
-0.69
-0.55
-0.63
-0.88
-1.19
-1.42
-1.45
-1.25
-0.89
-0.46
-0.04
0.31
0.58
0.77
0.83
0.72
0.43
0.01
-0.43
-0.77
-1
-1.16
-1.38
-1.77
-2.35
-3.02
-3.67
-4.17
-4.48
-4.58
-4.52
-4.3
-3.93
-3.45
-2.94
-2.54
-2.37
-2.45
-2.68
-2.87
-2.83
-2.49
-1.93
-1.32
-0.84
-0.58
-0.49
-0.42
-0.23
0.12
0.6
1.13
1.64
2.12
2.56
2.96
3.29
3.5
3.54
3.39
3.08
2.7
2.34
2.06
1.86
1.67
1.44
1.12
0.75
0.41
0.18
0.09
0.08
0
-0.28
-0.82
-1.53
-2.26
-2.81
-3.04
-2.92
-2.52
-1.95
-1.33
-0.74
-0.2
0.28
0.71
1.09
1.38
1.59
1.75
1.95
2.28
2.81
3.52
4.31
5.04
5.57
5.81
5.78
5.55
5.2
4.8
4.41
4.07
3.82
3.69
3.7
3.81
3.99
4.13
4.17
4.02
3.63
3.02
2.21
1.28
0.33
-0.56
-1.34
-1.97
-2.45
-2.78
-2.95
-2.99
-2.93
-2.83
-2.71
-2.55
-2.29
-1.86
-1.22
-0.45
0.29
0.87
1.21
1.39
1.57
1.93
2.53
3.31
4.11
4.76
5.2
5.48
5.75
6.09
6.53
6.98
7.35
7.55
7.6
7.61
7.7
7.94
8.33
8.74
9.08
9.28
9.43
9.67
10.15
10.92
11.87
12.81
13.54
14
14.28
14.51
14.83
15.22
15.58
15.7
15.49
14.9
14.02
12.91
11.66
10.23
8.58
6.68
4.58
2.44
0.43
-1.28
-2.61
-3.58
-4.27
-4.77
-5.18
-5.58
-6.02
-6.54
-7.22
-8.09
-9.17
-10.43
-11.8
-13.16
-14.39
-15.43
-16.27
-16.98
-17.64
-18.31
-18.95
-19.47
-19.74
-19.72
-19.45
-19.07
-18.67
-18.25
-17.7
-16.9
-15.75
-14.34
-12.81
-11.34
-10.04
-8.89
-7.81
-6.73
-5.62
-4.52
-3.5
-2.65
-2.07
-1.83
-1.96
-2.49
-3.36
-4.51
-5.86
-7.3
-8.73
-9.98
-10.84
-11.09
-10.57
-9.23
-7.02
-3.94
-0.02
4.7
10.09
15.89
21.76
27.31
32.13
35.86
38.33
39.48
39.52
38.79
37.69
36.49
35.19
33.57
31.33
28.3
24.39
19.73
14.65
9.57
4.95
1.24
-1.23
-2.28
-1.97
-0.83
0.51
1.46
1.65
0.92
-0.72
-2.96
-5.23
-6.74
-7.08
-6.19
-4.39
-2.29
-0.79
-0.77
-2.79
-6.86
-12.48
-19.26
-26.79
-34.51
-41.81
-48.19
-53.49
-57.85
-61.68
-62.9
-60.27
-54.14
-46.41
-38.99
-32.73
-27.57
-23.09
-18.74
-13.99
-8.81
-3.39
2.11
7.6
13.02
18.29
23.39
28.28
32.77
36.29
37.71
36.4
32.86
28.46
24.82
23.06
23.34
24.86
25.73
24.08
18.8
10.07
-0.81
-11.97
-21.42
-27.47
-29.11
-26.72
-20.75
-12.96
-5.71
-1.43
-1.95
-7.85
-18.09
-29.24
-36.98
-38.31
-33.03
-22.82
-9.92
3.64
16.29
26.89
35.39
40.89
42.8
41.15
37.06
32.43
29.1
28.21
29.86
33.27
35.95
36.57
34.69
30.79
25.78
20.23
14.16
7.22
-0.98
-10.25
-19.36
-26.79
-31.29
-32.31
-30.18
-25.82
-19.22
-11.8
-5.86
-2.82
-2.7
-4.54
-7.12
-9.61
-11.63
-13.1
-14.24
-15.18
-15.63
-15.37
-14.75
-13.69
-12.3
-10.69
-8.9
-7.03
-5.06
-2.81
-0.22
2.5
5.09
7.17
8.55
9.27
9.54
9.68
10.01
10.59
11.18
11.45
11.1
10.03
8.4
6.46
4.46
2.57
0.82
-0.87
-2.56
-4.29
-5.97
-7.48
-8.67
-9.42
-9.66
-9.37
-8.59
-7.4
-5.91
-4.27
-2.68
-1.36
-0.48
-0.12
-0.2
-0.53
-0.88
-1.04
-0.9
-0.4
0.38
1.38
2.43
3.33
3.86
3.81
3.12
1.84
0.17
-1.6
-3.25
-4.65
-5.79
-6.69
-7.38
-7.81
-7.87
-7.48
-6.63
-5.44
-4.1
-2.82
-1.76
-1
-0.57
-0.47
-0.7
-1.22
-1.98
-2.9
-3.86
-4.79
-5.67
-6.52
-7.38
-8.26
-9.17
-10.03
-10.82
-11.42
-11.75
-11.67
-11.09
-10
-8.49
-6.76
-5.01
-3.38
-1.91
-0.54
0.79
2.09
3.27
4.22
4.86
5.15
5.14
4.95
4.68
4.45
4.32
4.33
4.48
4.74
5.06
5.41
5.77
6.17
6.6
7.08
7.51
7.81
7.92
7.83
7.63
7.45
7.4
7.53
7.76
7.96
7.97
7.67
7.01
6.02
4.79
3.43
2.08
0.88
-0.1
-0.8
-1.21
-1.33
-1.21
-0.91
-0.54
-0.24
-0.13
-0.26
-0.56
-0.92
-1.18
-1.24
-1.1
-0.83
-0.54
-0.29
-0.07
0.15
0.42
0.73
1.07
1.39
1.66
1.89
2.1
2.29
2.49
2.7
2.92
3.12
3.29
3.38
3.38
3.32
3.26
3.32
3.6
4.11
4.78
5.43
5.86
5.94
5.61
4.94
4.04
3.06
2.11
1.31
0.68
0.19
-0.23
-0.7
-1.29
-1.98
-2.68
-3.26
-3.58
-3.65
-3.56
-3.46
-3.49
-3.67
-3.9
-4.05
-4
-3.71
-3.21
-2.58
-1.95
-1.4
-1.02
-0.8
-0.72
-0.71
-0.7
-0.7
-0.72
-0.81
-0.98
-1.16
-1.24
-1.16
-0.92
-0.6
-0.34
-0.23
-0.27
-0.37
-0.42
-0.42
-0.41
-0.52
-0.83
-1.37
-2.1
-2.98
-3.96
-5.06
-6.27
-7.55
-8.79
-9.85
-10.63
-11.07
-11.26
-11.32
-11.4
-11.59
-11.85
-12.09
-12.14
-11.86
-11.21
-10.22
-8.98
-7.61
-6.13
-4.54
-2.82
-0.96
1
2.98
4.95
6.91
8.88
10.84
12.67
14.24
15.41
16.17
16.58
16.76
16.77
16.61
16.18
15.43
14.36
13.05
11.64
10.29
9.14
8.28
7.75
7.5
7.43
7.38
7.23
6.95
6.66
6.56
6.79
7.4
8.28
9.22
10.04
10.67
11.22
11.88
12.86
14.26
16.03
17.96
19.77
21.16
21.94
22.02
21.42
20.22
18.61
16.74
14.8
12.96
11.35
10.1
9.22
8.67
8.31
7.95
7.4
6.53
5.33
3.93
2.53
1.35
0.53
0.07
-0.14
-0.29
-0.51
-0.91
-1.53
-2.37
-3.46
-4.79
-6.38
-8.2
-10.15
-12.13
-14
-15.66
-16.99
-17.89
-18.25
-18.02
-17.2
-15.89
-14.3
-12.64
-11.13
-9.89
-8.95
-8.29
-7.89
-7.77
-7.93
-8.37
-8.99
-9.63
-10.16
-10.55
-10.92
-11.52
-12.61
-14.33
-16.58
-19.02
-21.13
-22.43
-22.62
-21.72
-19.96
-17.72
-15.34
-13.03
-10.88
-8.93
-7.23
-5.91
-5.06
-4.72
-4.83
-5.24
-5.73
-6.15
-6.37
-6.32
-5.98
-5.34
-4.46
-3.42
-2.37
-1.42
-0.62
0.08
0.78
1.65
2.82
4.36
6.26
8.41
10.66
12.83
14.82
16.55
18.06
19.37
20.51
21.4
21.93
21.99
21.56
20.73
19.69
18.65
17.73
16.92
16.15
15.32
14.46
13.69
13.22
13.15
13.47
13.96
14.35
14.4
14
13.2
12.12
10.88
9.47
7.83
5.89
3.66
1.26
-1.17
-3.53
-5.81
-8.05
-10.23
-12.22
-13.8
-14.7
-14.83
-14.31
-13.46
-12.66
-12.19
-12.1
-12.2
-12.23
-11.99
-11.45
-10.7
-9.98
-9.51
-9.39
-9.62
-10.08
-10.61
-11.05
-11.24
-11.07
-10.52
-9.64
-8.55
-7.43
-6.44
-5.64
-4.97
-4.34
-3.7
-3.07
-2.59
-2.39
-2.54
-2.98
-3.53
-4.02
-4.36
-4.59
-4.81
-5.07
-5.31
-5.34
-4.99
-4.22
-3.14
-2.02
-1.1
-0.52
-0.24
-0.15
-0.1
-0.05
-0.06
-0.21
-0.56
-1.11
-1.79
-2.52
-3.25
-3.92
-4.45
-4.79
-4.85
-4.62
-4.17
-3.63
-3.12
-2.76
-2.56
-2.45
-2.31
-1.99
-1.42
-0.65
0.18
0.84
1.1
0.84
0.05
-1.11
-2.45
-3.74
-4.84
-5.68
-6.3
-6.82
-7.44
-8.38
-9.83
-11.84
-14.27
-16.74
-18.78
-19.9
-19.86
-18.69
-16.64
-14.06
-11.23
-8.28
-5.21
-2.04
1.17
4.21
6.87
8.95
10.35
11.1
11.27
10.96
10.26
9.23
7.92
6.38
4.66
2.84
1.05
-0.55
-1.74
-2.39
-2.45
-2.02
-1.33
-0.67
-0.26
-0.2
-0.4
-0.66
-0.78
-0.64
-0.26
0.31
0.96
1.67
2.4
3.11
3.71
4.02
3.91
3.37
2.53
1.62
0.87
0.37
0.11
-0.04
-0.18
-0.36
-0.57
-0.77
-0.96
-1.22
-1.69
-2.47
-3.54
-4.76
-5.94
-6.88
-7.51
-7.88
-8.14
-8.47
-8.94
-9.51
-10.04
-10.44
-10.7
-10.86
-10.86
-10.5
-9.34
-6.88
-2.81
2.72
9.02
15.09
20.02
23.31
24.94
25.02
23.62
20.95
17.61
14.59
12.99
13.69
16.87
21.7
26.35
28.54
26.38
19.25
8.25
-4.04
-14.54
-21.03
-23.05
-21.87
-19.39
-16.73
-13.6
-8.79
-1.57
7.13
14.75
18.48
17.17
12.07
6.12
2
0.54
0.61
0.38
-0.94
-2.35
-1.81
2.12
8.94
16.33
21.45
22.51
19.69
14.76
9.86
6.44
4.84
4.66
5.43
7.07
9.74
13.36
17.21
20.22
21.36
20.21
17.11
12.91
8.56
4.57
0.78
-3.57
-9.08
-15.63
-22.31
-27.73
-30.78
-31
-28.96
-25.99
-23.75
-23.22
-24.37
-26.48
-28.14
-28.82
-28.58
-27.81
-26.87
-25.84
-24.21
-21.1
-15.99
-8.96
-0.51
9.53
22.21
39.03
58.82
77.28
89.03
90.93
83.25
68.58
50.75
33.32
18.41
6.26
-3.8
-12.24
-18.89
-23.22
-25.02
-24.68
-23.24
-22.02
-21.91
-22.76
-23.43
-22.36
-18.66
-12.56
-5.31
1.39
5.96
7.47
6.05
2.74
-1.05
-4.22
-6.33
-7.48
-8.09
-8.53
-8.99
-9.38
-9.48
-9.19
-8.68
-8.27
-8.24
-8.64
-9.34
-9.98
-10.2
-9.8
-8.75
-7.14
-5.16
-3.01
-0.85
1.21
3.02
4.56
5.87
7.01
8
8.82
9.38
9.57
9.35
8.7
7.93
7.51
7.84
9.04
10.86
12.76
14.13
14.66
14.18
13.12
12.18
11.92
12.45
13.61
14.85
15.24
13.81
9.22
0.85
-10.98
-24.99
-39.05
-50.67
-57.76
-59.21
-53.26
-41.7
-27.5
-13.33
-0.85
9.39
17.47
23.88
28.63
31.53
32.16
30.72
27.86
24.4
20.99
17.98
15.32
12.74
9.94
6.68
3.3
0.31
-1.83
-2.95
-3.21
-3.05
-2.97
-3.26
-4.07
-5.11
-5.94
-6.18
-5.71
-4.66
-3.32
-2.04
-1.02
-0.42
-0.23
-0.39
-0.78
-1.27
-1.69
-1.9
-1.87
-1.64
-1.39
-1.22
-1.13
-1.01
-0.69
-0.07
0.77
1.63
2.28
2.57
2.51
2.25
1.92
1.59
1.24
0.78
0.19
-0.51
-1.22
-1.83
-2.28
-2.56
-2.73
-2.89
-3.12
-3.49
-3.98
-4.51
-4.96
-5.18
-5.14
-4.92
-4.7
-4.66
-4.81
-5.01
-5.02
-4.64
-3.89
-3
-2.38
-2.42
-3.28
-4.81
-6.6
-8.12
-8.98
-8.99
-8.34
-7.56
-7.34
-8.2
-10.26
-13.11
-15.94
-17.85
-18.23
-17.25
-15.89
-15.57
-17.42
-21.71
-27.64
-33.61
-37.92
-39.26
-37.53
-33.92
-30.44
-29.09
-31.2
-37.13
-45.97
-55.41
-61.46
-59.72
-46.87
-22.2
11.61
48.89
82.68
107.2
119.84
122.15
117.89
110.72
102.54
93.39
82.36
68.93
53.75
35.76
16.69
0.14
-10.55
-14.78
-14.69
-13.38
-13.3
-15.38
-19.21
-22.99
-24.97
-24.14
-20.52
-14.71
-7.67
-0.45
6.2
11.88
16.74
20.81
23.9
25.57
25.44
23.25
18.96
12.78
5.36
-2.07
-8.33
-12.63
-14.89
-15.61
-15.53
-14.99
-14.06
-12.61
-10.4
-7.57
-4.73
-2.81
-2.7
-4.8
-8.82
-13.96
-19.17
-23.56
-26.81
-28.88
-29.86
-29.84
-28.83
-26.85
-23.96
-20.28
-15.25
-9.4
-3.93
0.06
2.1
2.35
1.29
-0.44
-2.05
-2.76
-2.15
0.05
3.75
8.53
13.77
18.56
22.11
23.89
23.82
22.16
19.55
16.8
13.79
10.87
8.26
6.03
4.19
2.69
1.42
0.29
-0.77
-1.87
-3.01
-4.21
-5.4
-6.33
-6.67
-6.14
-4.63
-2.31
0.42
3.15
5.44
6.99
7.65
7.39
6.26
4.4
2.03
-0.5
-2.78
-4.51
-5.58
-6.07
-6.17
-6.06
-5.77
-5.2
-4.2
-2.67
-0.71
1.37
3.16
4.3
4.59
4.05
2.86
1.32
-0.31
-1.8
-2.97
-3.7
-3.88
-3.49
-2.58
-1.3
0.14
1.52
2.65
3.39
3.7
3.59
3.16
2.55
1.9
1.29
0.74
0.25
-0.23
-0.71
-1.16
-1.51
-1.69
-1.62
-1.28
-0.77
-0.28
-0.07
-0.37
-1.34
-2.96
-5
-7.09
-8.82
-9.85
-9.97
-9.18
-7.61
-5.47
-2.99
-0.34
2.32
4.83
6.98
8.51
9.19
8.88
7.63
5.69
3.46
1.34
-0.39
-1.59
-2.28
-2.47
-2.23
-1.57
-0.52
0.78
2.11
3.2
3.87
4.1
4.04
3.95
4.06
4.46
5.05
5.63
6.02
6.15
6.04
5.7
5.07
3.92
1.98
-0.92
-4.61
-8.61
-12.16
-14.5
-15.17
-14.12
-11.71
-8.53
-5.18
-2.08
0.51
2.44
3.66
4.15
3.96
3.29
2.41
1.59
1.04
0.83
0.89
1.12
1.41
1.73
2.07
2.42
2.77
3.12
3.5
3.97
4.59
5.31
6.05
6.65
6.95
6.87
6.43
5.7
4.77
3.73
2.67
1.62
0.66
-0.22
-1.01
-1.75
-2.45
-3.07
-3.49
-3.61
-3.4
-2.95
-2.4
-1.86
-1.34
-0.77
-0.09
0.67
1.33
1.68
1.55
0.97
0.14
-0.64
-1.14
-1.25
-1.01
-0.54
0.01
0.54
0.98
1.27
1.35
1.2
0.82
0.32
-0.11
-0.36
-0.35
-0.1
0.24
0.52
0.6
0.46
0.2
-0.06
-0.38
-0.88
-1.7
-2.86
-4.15
-5.16
-5.47
-4.8
-3.34
-1.78
-1.01
-1.67
-3.88
-7.12
-10.39
-12.73
-13.34
-12.34
-10.94
-10.61
-12.49
-16.73
-22.36
-27.48
-30.13
-28.55
-22.55
-14.25
-6.61
-2.67
-4.58
-12.86
-25.89
-39.87
-48.49
-45.45
-27.45
5.28
47.86
91.25
124.47
138.16
127.75
96.37
52.66
6.86
-30.46
-51.25
-51.73
-32.96
1.23
38.38
68.53
90.32
100.16
96.4
79.4
51.05
14.17
-27.71
-70.57
-106.97
-127.4
-127.64
-110.84
-85.32
-59.33
-38.05
-22.88
-12.54
-4.01
4.67
12.67
19.16
22.92
23.69
22.11
19.48
17.12
16.29
16.96
17.37
15.97
11.76
4.89
-4.13
-13.72
-21.06
-23.55
-20.61
-14.67
-7.28
0.7
9.15
18.05
27.02
35.43
42.51
47.48
49.76
49.43
46.92
43.01
38.53
34.32
31
28.72
27.19
25.94
24.56
22.64
19.98
16.55
12.6
8.49
4.5
0.78
-2.65
-5.77
-8.78
-11.84
-15.03
-18.21
-21.12
-23.49
-25.19
-26.23
-26.68
-26.71
-26.45
-25.95
-25.2
-24.23
-23.18
-22.32
-21.89
-22.02
-22.64
-23.48
-24.17
-24.37
-23.93
-22.89
-21.46
-19.88
-18.32
-16.77
-15.16
-13.33
-11.23
-8.92
-6.62
-4.57
-3.02
-2.04
-1.56
-1.39
-1.27
-0.99
-0.48
0.23
1.03
1.76
2.34
2.74
3.04
3.32
3.66
4.09
4.52
4.81
4.81
4.4
3.56
2.4
1.06
-0.28
-1.54
-2.66
-3.64
-4.43
-5
-5.3
-5.34
-5.22
-5.13
-5.28
-5.82
-6.77
-7.98
-9.14
-9.92
-10.08
-9.5
-8.25
-6.53
-4.66
-2.9
-1.48
-0.44
0.33
1.04
1.89
2.97
4.18
5.3
6.08
6.42
6.41
6.31
6.37
6.72
7.3
7.9
8.3
8.4
8.22
7.87
7.47
7.07
6.7
6.34
6.01
5.71
5.42
5.1
4.7
4.2
3.64
3.09
2.59
2.15
1.66
1
0.12
-0.93
-2.01
-2.89
-3.4
-3.49
-3.26
-2.88
-2.54
-2.32
-2.23
-2.16
-1.99
-1.68
-1.25
-0.79
-0.41
-0.16
-0.02
0.07
0.19
0.37
0.61
0.87
1.11
1.29
1.39
1.4
1.28
1.04
0.7
0.28
-0.15
-0.57
-0.95
-1.28
-1.55
-1.77
-1.91
-1.99
-2.07
-2.21
-2.45
-2.82
-3.22
-3.55
-3.68
-3.55
-3.18
-2.63
-2.01
-1.4
-0.85
-0.4
-0.04
0.21
0.31
0.26
0.07
-0.18
-0.37
-0.42
-0.31
-0.09
0.12
0.23
0.27
0.37
0.67
1.25
2
2.7
3.1
3.08
2.69
2.11
1.54
1.06
0.62
0.15
-0.35
-0.79
-1.02
-0.96
-0.68
-0.35
-0.19
-0.29
-0.61
-1.02
-1.37
-1.61
-1.74
-1.77
-1.68
-1.45
-1.07
-0.6
-0.19
0.03
-0.01
-0.24
-0.52
-0.68
-0.6
-0.3
0.1
0.5
0.8
0.96
1
0.94
0.82
0.69
0.64
0.76
1.14
1.76
2.49
3.14
3.49
3.41
2.93
2.17
1.3
0.47
-0.24
-0.79
-1.16
-1.34
-1.32
-1.13
-0.86
-0.6
-0.45
-0.46
-0.63
-0.9
-1.21
-1.51
-1.77
-2
-2.17
-2.27
-2.27
-2.17
-1.98
-1.76
-1.58
-1.48
-1.43
-1.37
-1.25
-1.05
-0.8
-0.57
-0.36
-0.13
0.22
0.74
1.4
2.07
2.59
2.83
2.78
2.57
2.31
2.12
2.02
2.01
2.04
2.14
2.29
2.47
2.57
2.46
2.08
1.45
0.71
0.05
-0.38
-0.52
-0.45
-0.3
-0.25
-0.39
-0.76
-1.28
-1.85
-2.3
-2.52
-2.48
-2.19
-1.78
-1.33
-0.95
-0.67
-0.47
-0.26
0.02
0.39
0.81
1.2
1.47
1.64
1.73
1.8
1.89
1.97
2.01
2.01
2.02
2.12
2.36
2.71
3.06
3.25
3.18
2.82
2.29
1.72
1.24
0.89
0.65
0.46
0.23
-0.08
-0.47
-0.9
-1.34
-1.76
-2.12
-2.38
-2.5
-2.45
-2.22
-1.83
-1.31
-0.73
-0.17
0.29
0.61
0.76
0.8
0.77
0.74
0.72
0.72
0.66
0.48
0.14
-0.34
-0.87
-1.36
-1.75
-2.01
-2.16
-2.23
-2.22
-2.08
-1.76
-1.22
-0.52
0.23
0.87
1.28
1.39
1.23
0.88
0.44
-0.02
-0.44
-0.81
-1.13
-1.39
-1.6
-1.78
-1.94
-2.13
-2.38
-2.69
-3.01
-3.26
-3.35
-3.22
-2.86
-2.34
-1.75
-1.22
-0.86
-0.69
-0.68
-0.69
-0.6
-0.35
0.04
0.43
0.72
0.86
0.93
1.07
1.4
1.96
2.6
3.14
3.39
3.28
2.88
2.38
1.93
1.63
1.48
1.41
1.34
1.25
1.13
1.03
0.95
0.87
0.71
0.38
-0.15
-0.84
-1.56
-2.15
-2.48
-2.53
-2.35
-2.09
-1.87
-1.78
-1.82
-1.9
-1.95
-1.91
-1.8
-1.64
-1.45
-1.2
-0.88
-0.43
0.1
0.62
1.01
1.18
1.1
0.85
0.57
0.43
0.54
0.96
1.6
2.33
2.98
3.39
3.51
3.39
3.13
2.84
2.59
2.37
2.15
1.9
1.61
1.35
1.16
1.03
0.93
0.79
0.57
0.29
-0.02
-0.31
-0.6
-0.91
-1.24
-1.56
-1.82
-1.99
-2.07
-2.05
-1.95
-1.79
-1.54
-1.21
-0.8
-0.36
0.06
0.42
0.73
0.97
1.13
1.18
1.11
0.98
0.9
0.97
1.2
1.53
1.81
1.92
1.84
1.67
1.52
1.49
1.58
1.69
1.72
1.58
1.28
0.88
0.46
0.08
-0.24
-0.45
-0.53
-0.46
-0.27
-0.08
-0.05
-0.31
-0.88
-1.68
-2.49
-3.09
-3.32
-3.18
-2.77
-2.27
-1.82
-1.45
-1.16
-0.87
-0.59
-0.34
-0.19
-0.17
-0.26
-0.35
-0.33
-0.11
0.3
0.81
1.29
1.62
1.73
1.63
1.36
1.05
0.82
0.75
0.9
1.26
1.76
2.28
2.73
3.01
3.08
2.91
2.54
2
1.37
0.73
0.19
-0.2
-0.42
-0.52
-0.56
-0.61
-0.72
-0.89
-1.1
-1.37
-1.72
-2.18
-2.71
-3.25
-3.67
-3.83
-3.66
-3.22
-2.58
-1.89
-1.24
-0.66
-0.13
0.36
0.78
1.07
1.14
1.03
0.81
0.64
0.65
0.86
1.18
1.47
1.63
1.67
1.67
1.75
1.92
2.11
2.16
1.96
1.5
0.93
0.42
0.11
0.02
0.07
0.14
0.15
0.08
0
-0.07
-0.12
-0.17
-0.22
-0.27
-0.32
-0.38
-0.53
-0.81
-1.24
-1.72
-2.1
-2.26
-2.16
-1.89
-1.55
-1.21
-0.86
-0.44
0.1
0.69
1.23
1.61
1.76
1.73
1.61
1.46
1.34
1.26
1.26
1.36
1.57
1.82
2.04
2.13
2.06
1.88
1.68
1.54
1.45
1.35
1.2
0.98
0.75
0.58
0.5
0.47
0.39
0.19
-0.16
-0.64
-1.15
-1.62
-2
-2.28
-2.48
-2.61
-2.63
-2.5
-2.17
-1.68
-1.12
-0.65
-0.39
-0.39
-0.58
-0.79
-0.85
-0.7
-0.37
0.01
0.33
0.55
0.71
0.92
1.19
1.45
1.58
1.45
1.05
0.51
0.06
-0.1
0.13
0.66
1.28
1.77
2.01
1.98
1.74
1.38
0.96
0.47
-0.06
-0.62
-1.13
-1.53
-1.78
-1.92
-2.02
-2.16
-2.37
-2.65
-2.92
-3.13
-3.18
-3.05
-2.74
-2.3
-1.81
-1.38
-1.06
-0.88
-0.77
-0.62
-0.34
0.11
0.71
1.34
1.84
2.11
2.11
1.9
1.6
1.35
1.22
1.26
1.42
1.68
1.97
2.2
2.33
2.28
2.06
1.69
1.27
0.91
0.68
0.61
0.65
0.71
0.72
0.65
0.51
0.31
0.09
-0.16
-0.46
-0.82
-1.22
-1.66
-2.08
-2.47
-2.81
-3.09
-3.31
-3.46
-3.46
-3.25
-2.78
-2.08
-1.26
-0.47
0.16
0.56
0.76
0.82
0.82
0.76
0.63
0.41
0.17
0
0
0.21
0.56
0.97
1.35
1.67
1.98
2.31
2.64
2.9
3.02
2.95
2.73
2.41
2.02
1.57
1.04
0.42
-0.2
-0.69
-0.92
-0.84
-0.48
-0.02
0.34
0.43
0.2
-0.3
-0.94
-1.58
-2.06
-2.29
-2.22
-1.86
-1.27
-0.6
0.02
0.5
0.83
1.05
1.25
1.46
1.62
1.65
1.51
1.26
1.05
1.02
1.27
1.69
2.11
2.32
2.21
1.84
1.38
1.07
1.02
1.2
1.46
1.6
1.5
1.17
0.7
0.22
-0.2
-0.56
-0.86
-1.14
-1.35
-1.47
-1.53
-1.59
-1.76
-2.11
-2.61
-3.13
-3.51
-3.62
-3.39
-2.85
-2.08
-1.21
-0.32
0.45
1
1.29
1.3
1.09
0.77
0.45
0.23
0.12
0.13
0.22
0.38
0.63
0.98
1.39
1.79
2.07
2.15
2.05
1.85
1.67
1.64
1.76
1.95
2.04
1.9
1.46
0.79
0.01
-0.71
-1.24
-1.55
-1.68
-1.77
-1.91
-2.18
-2.57
-2.96
-3.24
-3.33
-3.26
-3.1
-2.92
-2.74
-2.46
-1.97
-1.24
-0.32
0.6
1.32
1.73
1.8
1.65
1.44
1.28
1.22
1.24
1.27
1.27
1.19
1.04
0.85
0.67
0.55
0.51
0.52
0.57
0.59
0.57
0.5
0.4
0.31
0.25
0.27
0.37
0.5
0.62
0.65
0.52
0.22
-0.23
-0.77
-1.31
-1.81
-2.2
-2.46
-2.53
-2.35
-1.94
-1.36
-0.74
-0.2
0.17
0.41
0.6
0.81
1.03
1.14
1.03
0.67
0.2
-0.15
-0.21
0.06
0.51
0.92
1.12
1.15
1.18
1.4
1.86
2.43
2.87
2.97
2.65
2.04
1.29
0.56
-0.13
-0.8
-1.47
-2.09
-2.56
-2.77
-2.73
-2.53
-2.27
-2.04
-1.82
-1.54
-1.16
-0.69
-0.25
0.06
0.17
0.1
-0.02
-0.08
0
0.17
0.34
0.41
0.37
0.25
0.16
0.24
0.54
1.05
1.67
2.23
2.6
2.74
2.67
2.52
2.39
2.33
2.3
2.2
1.91
1.41
0.77
0.16
-0.25
-0.38
-0.29
-0.12
-0.03
-0.12
-0.41
-0.83
-1.3
-1.73
-2.09
-2.34
-2.5
-2.57
-2.57
-2.54
-2.47
-2.37
-2.19
-1.94
-1.62
-1.29
-0.99
-0.7
-0.38
0.06
0.59
1.1
1.41
1.37
1
0.46
0.03
-0.05
0.31
1.03
1.87
2.58
3
3.14
3.09
2.99
2.88
2.73
2.5
2.18
1.84
1.58
1.46
1.44
1.35
1.04
0.45
-0.3
-1
-1.4
-1.43
-1.18
-0.88
-0.75
-0.9
-1.25
-1.63
-1.91
-2.03
-2.07
-2.11
-2.22
-2.36
-2.44
-2.35
-2.05
-1.6
-1.06
-0.54
-0.07
0.33
0.69
1.01
1.3
1.57
1.81
2
2.06
1.96
1.67
1.27
0.89
0.65
0.61
0.71
0.84
0.89
0.79
0.57
0.33
0.15
0.1
0.18
0.32
0.42
0.4
0.24
-0.06
-0.48
-0.96
-1.44
-1.89
-2.3
-2.66
-2.93
-3.06
-3.01
-2.79
-2.44
-2.03
-1.63
-1.25
-0.87
-0.44
0.04
0.54
0.91
1.05
0.94
0.66
0.33
0.03
-0.11
-0.07
0.04
0.05
-0.1
-0.39
-0.73
-1.09
-1.52
-1.85
-1.97
-1.92
-1.94
-2.23
-2.88
-3.85
-5
-6.12
-6.71
-6.44
-5.46
-4.26
-3.28
-2.6
-1.94
-0.94
0.7
3.47
7.53
12.5
17.67
22.57
27.23
32.05
37.47
40.74
39.9
35.31
29.19
23.26
18.06
13.35
8.78
4.18
-0.35
-4.05
-6.27
-6.92
-6.65
-6.24
-6.35
-7.15
-8.39
-9.53
-9.77
-8.86
-7.42
-6.77
-7.96
-11.32
-16.25
-21.45
-25.44
-26.76
-24.62
-19.22
-12.2
-5.48
-1.5
-2.5
-9.64
-22.21
-37.29
-50.61
-57.41
-55.55
-45.75
-31.18
-15.81
-2.71
6.9
13.45
18.06
21.43
23.37
23.41
21.39
17.88
14.11
11.41
10.54
11.41
13.2
14.71
15.14
14.32
12.75
11.26
10.62
11.16
12.67
14.54
15.81
15.85
14.47
11.97
9
6.16
3.88
2.18
0.82
-0.59
-2.28
-4.24
-6.21
-7.84
-8.84
-9.05
-8.57
-7.6
-6.4
-5.19
-4.05
-3.02
-2.1
-1.33
-0.74
-0.37
-0.21
-0.25
-0.45
-0.77
-1.17
-1.59
-1.99
-2.27
-2.32
-2.09
-1.56
-0.79
0.12
1.06
1.96
2.75
3.43
3.97
4.38
4.66
4.84
4.98
5.11
5.43
5.96
6.61
7.18
7.52
7.52
7.24
6.84
6.49
6.28
6.13
5.88
5.37
4.49
3.25
1.78
0.27
-1.05
-1.97
-2.39
-2.32
-1.87
-1.26
-0.71
-0.37
-0.32
-0.52
-0.87
-1.23
-1.47
-1.46
-1.16
-0.58
0.13
0.76
1.09
1
0.53
-0.16
-0.82
-1.22
-1.22
-0.87
-0.28
0.36
0.87
1.16
1.17
0.91
0.42
-0.21
-0.87
-1.42
-1.74
-1.76
-1.52
-1.15
-0.81
-0.64
-0.71
-1.03
-1.55
-2.25
-3.06
-3.91
-4.63
-5.04
-5.01
-4.5
-3.59
-2.47
-1.34
-0.3
0.6
1.38
2.07
2.67
3.17
3.55
3.83
4.05
4.29
4.6
4.99
5.46
5.9
6.22
6.26
5.95
5.29
4.36
3.29
2.16
0.98
-0.27
-1.61
-2.94
-4.11
-4.93
-5.32
-5.33
-5.12
-4.86
-4.7
-4.65
-4.67
-4.66
-4.59
-4.41
-4.11
-3.7
-3.25
-2.85
-2.6
-2.55
-2.64
-2.73
-2.69
-2.44
-2.03
-1.62
-1.38
-1.42
-1.75
-2.27
-2.81
-3.25
-3.53
-3.7
-3.88
-4.2
-4.69
-5.19
-5.39
-4.94
-3.66
-1.64
0.68
2.72
4.05
4.5
4.32
3.92
3.76
4.08
4.93
6.18
7.64
9.03
9.98
10.12
9.29
7.7
6.05
5.23
5.93
8.18
11.18
13.61
14.04
11.56
6
-2.07
-11.64
-21.62
-30.99
-38.87
-44.44
-47.07
-46.4
-42.5
-35.95
-27.78
-19.21
-11.37
-5.04
-0.51
2.39
4.08
5.08
5.74
6.23
6.56
6.6
6.28
5.62
4.78
3.99
3.44
3.19
3.11
2.99
2.68
2.18
1.64
1.33
1.44
2.02
2.93
3.97
4.95
5.75
6.35
6.72
6.81
6.53
5.86
4.86
3.74
2.8
2.29
2.33
2.93
3.92
5.1
6.22
7.06
7.42
7.19
6.44
5.38
4.3
3.44
2.84
2.29
1.43
0.01
-2
-4.33
-6.56
-8.29
-9.33
-9.74
-9.68
-9.31
-8.71
-7.86
-6.79
-5.55
-4.29
-3.17
-2.29
-1.7
-1.35
-1.13
-0.94
-0.69
-0.35
0.05
0.46
0.77
0.91
0.87
0.71
0.53
0.46
0.5
0.59
0.59
0.4
0.01
-0.51
-1.02
-1.42
-1.67
-1.84
-2
-2.14
-2.19
-2.04
-1.62
-0.98
-0.24
0.42
0.92
1.24
1.43
1.53
1.52
1.37
1.05
0.59
0.1
-0.3
-0.54
-0.63
-0.64
-0.63
-0.62
-0.56
-0.36
0.02
0.55
1.12
1.55
1.74
1.62
1.24
0.74
0.23
-0.2
-0.56
-0.92
-1.34
-1.73
-1.88
-1.54
-0.53
1.08
3
4.75
5.89
6.19
5.68
4.54
3.06
1.42
-0.22
-1.71
-2.89
-3.56
-3.66
-3.29
-2.72
-2.24
-2.02
-1.97
-1.78
-1.09
0.29
2.34
4.74
7.01
8.73
9.62
9.62
8.79
7.26
5.16
2.62
-0.19
-3.03
-5.64
-7.72
-9.07
-9.62
-9.44
-8.65
-7.46
-6.04
-4.58
-3.23
-2.06
-1
0.2
1.9
4.41
7.76
11.63
15.32
18.06
19.2
18.53
16.22
12.78
8.78
4.71
0.86
-2.59
-5.6
-8.07
-9.95
-11.15
-11.66
-11.55
-11
-10.24
-9.5
-8.91
-8.49
-8.11
-7.62
-6.87
-5.86
-4.74
-3.68
-2.82
-2.19
-1.69
-1.15
-0.47
0.39
1.4
2.46
3.49
4.44
5.22
5.72
5.84
5.46
4.57
3.27
1.74
0.27
-0.84
-1.32
-0.96
0.31
2.4
5.09
8.04
10.89
13.26
14.86
15.45
14.95
13.38
10.97
8.08
5.16
2.61
0.71
-0.48
-1.02
-1.1
-0.9
-0.62
-0.43
-0.48
-0.88
-1.58
-2.39
-3.08
-3.4
-3.26
-2.72
-1.94
-1.05
-0.13
0.83
1.86
2.94
3.97
4.84
5.49
5.97
6.34
6.64
6.79
6.65
6.05
4.98
3.58
2.12
0.84
-0.12
-0.84
-1.58
-2.63
-4.26
-6.55
-9.34
-12.28
-14.92
-16.8
-17.66
-17.47
-16.44
-14.9
-13.15
-11.41
-9.75
-8.21
-6.85
-5.79
-5.16
-4.99
-5.19
-5.57
-5.94
-6.14
-6.08
-5.75
-5.16
-4.37
-3.46
-2.58
-1.87
-1.47
-1.36
-1.49
-1.67
-1.72
-1.55
-1.13
-0.53
0.17
0.9
1.64
2.39
3.14
3.88
4.52
4.96
5.12
4.96
4.54
4.05
3.7
3.65
3.92
4.4
4.85
5.08
5.02
4.71
4.31
3.97
3.74
3.58
3.4
3.13
2.78
2.39
2
1.62
1.17
0.6
-0.15
-1.04
-2
-2.92
-3.7
-4.28
-4.62
-4.7
-4.46
-3.93
-3.14
-2.24
-1.38
-0.69
-0.23
0.05
0.2
0.27
0.26
0.12
-0.15
-0.46
-0.68
-0.69
-0.46
-0.1
0.24
0.46
0.55
0.63
0.83
1.23
1.84
2.55
3.27
3.89
4.35
4.62
4.65
4.37
3.79
2.91
1.87
0.85
-0.01
-0.58
-0.89
-1.04
-1.23
-1.63
-2.37
-3.4
-4.55
-5.61
-6.38
-6.77
-6.77
-6.45
-5.91
-5.21
-4.37
-3.4
-2.37
-1.38
-0.56
0.01
0.34
0.51
0.62
0.79
1
1.16
1.16
0.93
0.52
0.04
-0.45
-0.91
-1.28
-1.53
-1.66
-1.65
-1.46
-1.02
-0.28
0.49
0.9
0.46
-1.38
-5.1
-10.69
-17.5
-24.23
-29.29
-31.79
-31.53
-29.18
-26.1
-23.77
-23.18
-24.35
-26.4
-27.99
-28.43
-27.52
-25.47
-22.84
-20.3
-18.38
-17.53
-18.02
-17.12
-13.32
-5.98
5.42
21.36
41.44
63.51
83.63
97.41
101.67
95.34
80.33
60.69
40.89
24.22
12.04
3.85
-1.74
-5.96
-9.57
-12.32
-13.49
-12.76
-10.9
-8.75
-7.26
-6.93
-7.59
-8.81
-10
-10.88
-11.69
-12.93
-14.95
-17.78
-20.92
-23.63
-25.29
-25.57
-23.86
-20.59
-16.32
-11.31
-5.75
0.16
6.09
11.58
16.23
19.74
22.33
23.81
24.09
23.21
21.44
19.21
17.07
15.44
14.4
13.58
12.31
10.02
6.41
1.6
-3.86
-9.09
-13.24
-15.88
-16.88
-16.58
-15.64
-14.67
-14.07
-13.87
-13.74
-13.26
-12.01
-9.63
-5.89
-0.76
5.51
11.98
17.18
19.65
18.75
15.55
13.24
16.47
28.31
49.81
78.08
107.09
130.28
142.8
142.27
128.97
105.39
75.54
44.6
17.6
-1.94
-13.34
-19.11
-23.87
-32.27
-45.94
-63.59
-81.65
-95.99
-103.49
-102.97
-95.26
-82.64
-67.68
-52.39
-38.01
-24.93
-12.98
-1.74
9.15
20.49
31.87
42.07
49.27
51.13
45.63
31.91
11.06
-13.51
-36.78
-53.76
-61.01
-57.92
-46.79
-31.7
-16.73
-4.6
3.82
9.06
12.09
13.75
14.54
14.63
14.09
12.98
11.21
8.53
4.61
-0.72
-7.13
-13.76
-19.51
-23.45
-25.18
-24.92
-23.35
-21.27
-19.34
-17.85
-16.72
-15.7
-14.56
-13.28
-12.02
-11.01
-10.35
-9.97
-9.62
-9.06
-8.31
-7.77
-8.05
-9.67
-12.76
-16.93
-21.4
-25.2
-27.11
-25.76
-19.89
-8.9
6.51
23.97
39.83
50.35
53.14
48.44
38.91
28.28
19.56
13.94
10.77
8.44
5.56
1.68
-2.49
-5.83
-7.89
-9.21
-11.04
-14.55
-20.2
-27.49
-35.09
-40.86
-42.66
-39.08
-29.89
-15.9
1.54
20.83
40.31
56.21
64.55
63.6
54.69
41.05
26.25
13.3
4.16
-0.53
-1.46
0.07
2.6
4.7
5.66
5.25
3.82
2.1
0.83
0.45
1.15
2.85
5.06
7.15
8.64
9.45
9.9
10.33
10.83
11.32
11.47
10.87
9.28
6.95
4.62
3.21
3.26
4.51
5.92
6.03
3.38
-3.13
-13.66
-27.78
-44.34
-61.38
-75.94
-84.29
-82.9
-70.03
-47.03
-18.57
8.69
28.61
37.85
36.85
29.03
18.75
9.25
1.72
-4.19
-8.99
-12.13
-11.92
-6.59
4.2
18.42
32.14
41.2
43.29
39.08
31.7
24.94
21.16
20.08
19.37
16.36
9.86
0.96
-7.7
-13.56
-15.77
-15.6
-15.72
-18.58
-24.98
-33.63
-41.82
-46.79
-46.93
-42.39
-34.7
-25.84
-17.25
-9.36
-1.79
5.96
13.83
21.01
26.52
29.77
31.05
31.41
31.96
33.09
34.24
34.33
32.37
28.28
23.04
17.91
13.87
11.02
8.58
5.51
1.21
-4.13
-9.55
-13.89
-16.36
-16.94
-16.3
-15.35
-14.69
-14.46
-14.21
-13.32
-11.4
-8.49
-5.05
-1.62
1.4
3.92
6.2
8.65
11.55
14.91
18.38
21.24
22.73
22.24
19.64
15.37
10.33
5.58
2.05
0.21
0
0.93
2.21
3.08
3
1.87
-0.05
-2.05
-3.31
-3.16
-1.32
1.88
5.4
7.75
7.35
3.02
-5.36
-16.7
-28.77
-38.76
-44.34
-44.5
-40.05
-32.98
-26.39
-22.43
-21.58
-22.58
-23.15
-21.14
-15.51
-6.91
2.84
11.32
16.61
17.91
15.79
11.8
7.82
5.41
5.21
7.03
10.08
13.71
17.48
21.15
24.41
26.59
26.77
24.15
18.57
10.74
2.22
-5.08
-9.62
-10.76
-8.99
-5.56
-2.14
0.13
0.87
0.55
0.07
0.27
1.48
3.3
4.79
4.86
2.89
-1.05
-6.17
-11.21
-14.91
-16.42
-15.68
-13.35
-10.48
-8.04
-6.54
-5.93
-5.79
-5.65
-5.2
-4.38
-3.19
-1.49
0.97
4.21
7.72
10.54
11.55
10.89
9.9
10.6
14.46
21.43
29.83
37.26
41.83
43.03
41.42
37.64
31.62
22.67
10.45
-4
-17.99
-28.21
-32.33
-30.17
-23.75
-16.16
-10.04
-6.69
-6.09
-7.45
-9.93
-12.89
-15.81
-18.14
-19.48
-19.37
-17.82
-15.24
-12.12
-8.87
-5.71
-2.79
-0.44
0.95
1.21
0.66
0.09
0.39
1.89
3.95
5.21
4.27
0.61
-5.02
-10.73
-14.59
-15.48
-13.61
-10.2
-6.71
-4.1
-2.6
-2
-2.15
-3.25
-5.54
-8.88
-12.37
