2584120480
64
0
0
0
0
0
0
0
0
0
0
0
0.01
0.01
0
-0.03
-0.05
-0.05
0
0.13
0.36
0.66
1.01
1.37
1.72
2.06
2.4
2.79
3.24
3.8
4.42
5.06
5.66
6.2
6.68
7.15
7.68
8.32
9.16
10.12
11.09
11.95
12.66
13.28
13.95
14.91
16.3
18.34
20.85
23.56
26.17
28.51
30.65
32.91
35.7
39.36
44.25
50.04
56.18
62.11
67.46
72.3
77.11
82.58
89.25
97.64
107.27
117.33
126.93
135.52
143.11
150.32
158.49
166.32
176.11
188.43
203.41
219.82
234.76
243.88
242.53
227.33
197.44
155.26
104.66
49.96
-5.63
-60.55
-114.57
-167.82
-220.03
-270.27
-317.05
-359.44
-396.74
-428.4
-453.59
-471.02
-479.03
-476.02
-460.99
-433.88
-396.16
-350.19
-298.9
-245.09
-191.13
-138.72
-89.75
-45.24
-5.68
28.55
57.25
80.51
98.7
112.53
122.96
130.9
137.27
142.65
147.28
151.15
154.1
155.97
156.69
156.31
154.85
152.44
149.17
145.05
140.06
134.12
127.22
119.33
110.84
102
93.05
84.16
75.39
66.83
58.54
50.6
43.16
36.4
30.46
25.5
21.65
18.95
17.36
16.77
16.95
17.64
18.57
19.38
19.81
19.63
18.75
17.2
15.13
12.8
10.52
8.62
7.32
6.76
7.01
7.99
9.49
11.18
12.7
13.7
13.79
12.73
10.37
6.75
2.04
-3.42
-9.17
-14.73
-19.65
-23.52
-26.09
-27.25
-27.06
-25.72
-23.5
-20.78
-17.92
-15.3
-13.19
-11.81
-11.28
-11.63
-12.79
-14.64
-17.08
-19.97
-23.15
-26.48
-29.81
-33.01
-35.95
-38.51
-40.59
-42.08
-42.87
-42.88
-42.04
-40.24
-37.45
-33.67
-29.01
-23.63
-17.77
-11.72
-5.8
-0.33
4.41
8.21
10.91
12.5
13.01
12.59
11.35
9.49
7.18
4.52
1.58
-1.6
-5.01
-8.62
-12.38
-16.15
-19.76
-23
-25.65
-27.46
-28.19
-27.63
-25.61
-22.03
-16.87
-10.2
-2.22
6.78
16.42
26.26
35.78
44.52
52.07
58.11
62.43
65.07
66.21
66.26
65.73
65.24
65.4
66.73
69.51
73.84
79.57
86.32
93.62
100.96
107.83
113.73
118.2
120.87
121.47
119.96
116.57
111.83
106.46
101.25
96.87
93.68
91.74
90.86
90.65
90.84
91.27
91.87
92.65
93.44
93.84
93.25
90.99
86.63
80.26
72.58
64.74
57.95
52.95
49.6
46.69
42.54
35.61
25.22
12.08
-2.09
-15.32
-26.44
-35.89
-45.64
-58.37
-76.14
-99.1
-125.1
-150.43
-171.68
-187.26
-198.44
-208.86
-222.57
-242.08
-267.32
-296.04
-325.52
-353.72
-379.52
-401.36
-415.9
-417.8
-402.15
-367.95
-320.25
-269.19
-225.43
-194.73
-175.13
-158.75
-137.45
-108.53
-76.94
-51.67
-39.23
-38.35
-39.8
-31.91
-8.48
26.05
57.44
69.26
52.37
10.74
-39.26
-77.1
-88.49
-72.76
-43.25
-19.68
-17.44
-38.97
-72.47
-98.63
-101.37
-76.76
-35.06
5.47
28.86
30.33
18.22
8.26
13.54
36.26
66.19
87.14
87.02
65.44
34.45
11.18
7.58
23.18
45.46
57.81
50.02
24.85
-3
-15.91
-4.03
28.13
63.59
82.39
72.73
37.79
-5.77
-37.16
-42.8
-23.73
5.35
24.74
21.05
-5.12
-39.77
-63.9
-64.43
-41.48
-7.5
20.97
33.12
30.13
23.41
26.48
45.89
76.17
102.71
110.61
93.86
59.51
24.31
4.91
8.32
27.57
45.71
45.78
21.02
-20.38
-59.5
-77.01
-64.11
-28.12
11.78
35.19
31.61
6.14
-23.81
-38.94
-28.83
2.51
39.78
65.83
71.35
59.81
44.23
38.34
47.89
66.81
81.43
79.6
58.81
28.71
5.75
3.25
22.85
52.51
72.66
67.29
33.28
-16.99
-62.22
-83.65
-75.24
-47.18
-19.67
-11.34
-29.03
-63.93
-96.98
-109.91
-95.44
-61.01
-23.65
0.13
3.81
-6.14
-15.3
-11
9.57
37.51
58.37
61.63
47.81
28.76
20.39
32.69
62.78
95.72
112.31
100.06
60.52
9.2
-32.81
-50.06
-40.83
-17.97
-0.9
-4.48
-30.42
-66.31
-92.82
-94.97
-71.06
-33.63
-2.17
8.35
-4.04
-27.41
-43.76
-40.08
-15.87
16.89
42.21
50.02
42.47
32
32.84
51.55
81.93
108.4
114.96
94.89
55.04
12.81
-13.69
-15.45
2.44
23.71
30.47
13.41
-22.26
-59.62
-79.38
-70.71
-37.91
2.15
29.41
32.16
13.14
-12.27
-25.87
-17.55
8.91
38.63
55.47
52
34.17
16.99
14.62
30.97
56.64
74.71
71.41
45.08
7.91
-20.82
-26.03
-5.73
27.17
51.98
51.66
22.2
-24.83
-68.6
-90.27
-82.96
-55.19
-25.38
-11.23
-19.67
-43.45
-65.95
-71.41
-54.25
-22.19
8.82
24.22
19.39
2.2
-12.51
-12.26
5.22
30.37
47.88
46.37
25.84
-1.37
-17.7
-10.62
19.29
57.61
83.63
81.82
50.75
4.33
-35.85
-52.36
-41.49
-14.73
8.71
13.29
-3.71
-30.85
-50.09
-47.7
-22.65
12.64
39.87
45.41
28.19
0.06
-21.48
-23.65
-5.86
20.18
37.89
36.01
15.56
-10.66
-26.23
-21.39
0.43
24.56
34.01
20.31
-10.88
-42.51
-56.59
-44.93
-14.57
15.92
27.17
9.83
-29.74
-72.76
-98.26
-94.17
-63.59
-22.64
8.96
18.87
8.72
-7.52
-12.66
3.01
35.55
69.92
89.42
85.97
65.2
42.55
33.38
43.17
64.04
79.96
77.2
53.27
19.08
-7.33
-11.66
7.94
39.07
61.81
59.81
29.43
-17.79
-61.54
-83.67
-78.03
-53.55
-28.6
-20.3
-34.61
-63.09
-88.15
-93.43
-73.39
-36.72
-1.15
16.74
11.21
-9.45
-27.96
-28.41
-5.88
30.61
63.5
77.42
68.25
45.58
26.05
22.83
36.97
56.65
64.79
50.17
15.09
-25.1
-51.02
-50.71
-26.98
3.7
20.61
10.28
-25.68
-71.26
-104.77
-110.52
-87.2
-48.28
-13.93
0.32
-7.92
-27.11
-39.52
-32.13
-4.55
31.21
58.64
66.86
57.16
41.6
34.72
44.1
65.18
84.12
86.59
67.01
32.66
0.02
-14.8
-5.67
19.66
43.57
48.8
28.46
-9.61
-47.04
-65.41
-56.65
-28.05
1.97
14.16
-0.52
-35.98
-74.21
-95.46
-89.1
-59.2
-21.61
5.65
12.64
3.19
-8.42
-6.67
15.33
51.25
85.5
102.81
97.55
77.04
56.87
50.99
62.93
83.68
97.29
90.94
62.98
24.47
-7.32
-19.12
-9.33
10.69
23.83
17.42
-8.93
-42.77
-66.02
-65.82
-42.54
-10.36
10.48
5.27
-26.65
-70.79
-105.49
-113.55
-91.52
-51.6
-14.42
2.4
-6.02
-29.53
-49.47
-50
-27.6
6.89
34.98
41.52
23.69
-7.39
-33.55
-40.44
-25.84
-0.59
18.7
20.03
3.51
-19
-31.61
-24.54
-0.48
27.32
43.58
40.65
23.55
7.01
5.94
25.89
58.76
86.71
92.6
70.01
27.34
-16.14
-40.87
-37.58
-12.23
17.34
31.5
19.68
-13.67
-51.93
-75.45
-72.6
-46.23
-11.46
13.31
17.11
2.87
-15.09
-20.37
-4.79
26.07
56.37
69.77
59.51
32.7
6.35
-3.15
10.23
38.57
64.63
72.55
57.07
26.68
-1.76
-13.1
-2.88
20.1
39.31
40.46
20.02
-12.22
-39.23
-46.7
-31.76
-5.4
14.13
11.97
-14.46
-53.3
-84.87
-92.99
-74.33
-40.71
-12.09
-5.01
-22.83
-53.9
-78.41
-80.05
-55.45
-15.65
20.85
39.04
36
21.89
12.83
20.51
44.83
73.82
91.54
87.98
65.53
37.95
21.82
26.49
47.92
70.46
75.86
53.9
8.8
-42.58
-79.8
-89.95
-74.62
-48.54
-30.91
-34.5
-58.2
-87.73
-104.22
-95.06
-61.46
-17.87
16.43
28.23
17.66
-2.23
-13.78
-5.39
21.51
53.37
72.92
69.53
45.64
15.07
-5.41
-6.05
10.16
30.15
39.41
31.41
12
-4.24
-3.6
17.64
49.47
73.48
73.52
45.27
-0.4
-43.02
-63.92
-56.63
-30.47
-5.3
0.06
-21.29
-60.27
-96.68
-110.51
-93.01
-51.5
-4.75
27.69
36.33
26.38
13.23
12.39
29.85
58.75
84.61
95.14
88.23
73.5
65.52
74.04
97.07
120.88
128.08
108.15
64.21
12.37
-26.72
-39.16
-25.47
-0.62
14.01
2.42
-37.09
-90.65
-136.1
-154.85
-141.94
-108.36
-74.5
-58.51
-66.17
-88.09
-106.08
-104.22
-78.28
-37.9
-0.05
21.43
23.95
17.14
15.44
28.33
53.63
78.62
88.45
75.96
46.9
17.4
4.36
15.4
43.92
72.31
81.86
63.37
22.54
-22.85
-52.64
-55.11
-33.41
-3.18
16.24
12.75
-11.77
-43.03
-62.81
-59.37
-34.31
-1.11
23.04
27.52
14.28
-3.72
-11.14
0.11
25.59
51.22
62.33
53.02
30.16
9.53
5.81
23.24
52.44
75.54
76.98
52.93
14.06
-20.39
-33.71
-21.4
6.25
30.25
33.74
11.68
-26.13
-60.96
-75.59
-63.87
-34.13
-3.86
10.19
1.39
-23.3
-48.07
-57.81
-46.69
-21.42
3.51
14.69
7.9
-9.62
-23.83
-22.88
-4.66
21.55
40.6
40.73
20.97
-7.69
-28.5
-28.9
-8.38
20.9
40.65
37.26
9.7
-29.23
-60.41
-69.1
-53.49
-25.68
-4.29
-3.74
-25.83
-58.34
-82.58
-84.03
-60.63
-24.23
6.71
17.6
6.05
-16.87
-33.37
-29.62
-3.93
32.16
60.73
67.94
52.07
24.13
1.13
-4.07
9.75
32.45
49.44
51.32
39.89
26.88
25.78
42.54
70.54
93.78
96.49
72.77
30.97
-10.19
-32.11
-26.78
-1.44
25.37
34.28
16.1
-23.08
-65.26
-90.63
-88.28
-61.98
-27.43
-3.22
-0.52
-17.11
-39.29
-50.27
-40
-11.21
22.54
45.01
46.9
31.47
12.27
4.77
16.95
44.28
72.6
87.12
81.5
61.98
43.25
38.95
52.6
74.71
88.26
79.13
45.03
-2.28
-43.32
-61.92
-54.18
-30.86
-10.71
-9.65
-31.57
-66.39
-96.25
-106.17
-92.99
-67.25
-46.79
-46.18
-67.83
-100.13
-124.09
-124.02
-96.27
-51.45
-8.07
17.81
21.52
11.75
4.74
13.95
41.7
77.6
104.82
110.39
92.85
63.57
39.62
33.75
46.86
67.43
78.87
69.73
40.98
5.9
-17.6
-17.65
4.19
33.35
50.42
42.27
9.63
-32.78
-64.76
-71.85
-53.62
-24.14
-3.81
-7.73
-36.79
-76.84
-106.62
-109.69
-83.56
-40.87
-1.78
17.46
13.41
-3.35
-15.54
-9.84
14.89
47.32
71
74.7
59.26
36.96
23.47
28.05
47.53
68.53
75.86
62.05
32.31
1.58
-14.49
-8.91
12.38
33.99
40.7
26.6
-1.36
-27.26
-35.85
-21.57
7.61
34.54
42.53
24.76
-11.72
-49.9
-72.51
-71.7
-53.4
-33.55
-28.34
-44.31
-74.08
-100.53
-106.9
-86.76
-48.58
-11.32
6.02
-4.92
-36.77
-70.42
-85.58
-71.91
-34.67
8.78
39.25
46.52
34.9
19.93
18.46
38.32
73.37
107.44
124.05
116.09
90.01
61.62
46.46
50.8
68.09
83.54
83.56
64.07
33.47
7.61
0.27
14.56
40.42
60.17
58.81
32.89
-7.08
-42.88
-59.11
-52.15
-32.46
-17.7
-22.02
-47.36
-81.93
-107.22
-108.84
-85.12
-48.54
-18.53
-10.46
-26.82
-55.69
-77.67
-77.11
-50.95
-10.43
25.83
42.6
36.52
17.5
1.98
2.66
20.72
45.39
60.93
56.86
34.78
8.27
-5.09
5.73
38.1
76.2
99.29
93.02
57.44
7.71
-34.27
-51.3
-39.78
-11.29
14.68
21.74
5.54
-24.39
-50.83
-59.26
-46.42
-21.88
-1.66
1.76
-12.77
-34.42
-47.5
-41.65
-18.68
7.82
21.15
11.97
-15.28
-44.25
-56.48
-42.39
-7.92
28.53
46.15
33.4
-5.27
-51.34
-82.56
-84.66
-58.34
-18.11
16.7
32.69
29.25
17.45
12.16
22.5
45.87
70.04
81.12
72.57
49.72
26.55
16.85
25.37
44.38
57.9
51.74
22.51
-19.46
-55.33
-68.64
-54.72
-24
3.87
10.95
-9.09
-47.42
-84.8
-102.2
-91.07
-57.61
-18.93
6.87
10.61
-3.17
-19.7
-23.26
-6.52
24.9
56.41
73.43
70.31
53.72
38.15
36.5
51.68
74.53
89.1
82.83
54.36
15.32
-16.03
-25.09
-9.2
20.44
45.1
48.95
27.88
-8.44
-42.3
-58.39
-52.65
-34.55
-21.25
-27.11
-54.99
-93.68
-124.1
-129.73
-105.84
-62.66
-19.59
5.27
5.01
-12.69
-30.35
-31.22
-9.13
28.11
63.54
81.19
75.3
53.65
32.32
25.88
38.8
62.87
83.08
87.23
73.77
52.79
39.65
45.02
67.65
94.41
107.46
94.65
56.57
7
-34.88
-54.89
-51.38
-35.89
-25.65
-33.33
-59.48
-92.03
-113.48
-111.33
-85.92
-50.86
-25.69
-24.72
-48.46
-82.71
-106.53
-103.91
-72.86
-26.93
12.64
28.74
17.98
-7.83
-28.93
-29.37
-6.51
27.84
54.72
59.59
40.78
10.73
-12.15
-14.41
4.72
33.27
54.79
58.41
45.49
28.37
22.17
35.17
63.06
91.61
105.06
95.46
67.38
35.41
15.3
14.92
29.74
45.65
47.95
30.24
-1.19
-30.97
-43.73
-33.49
-7.99
15.47
19.81
-1.9
-42.4
-84.02
-108.94
-109
-90.12
-68.47
-60.43
-72.79
-98.3
-120.09
-121.6
-96.87
-54.94
-15.05
4.02
-5.25
-34.26
-63.09
-71.79
-51.46
-9.41
35.13
61.96
61.04
37.71
9.2
-5.81
2.1
28.06
56.57
71.36
65.22
44.26
23.66
18.11
32.87
60.43
85.68
95.32
86.04
66.41
51.27
52.14
69.68
92.5
104.02
92.24
57.03
11.06
-27.12
-43.03
-33.83
-9.66
12.94
20.75
11.57
-5.1
-14.16
-4.72
22.46
54.41
73.15
66.01
33.26
-11.25
-47.84
-61.64
-50.79
-27.19
-9.01
-9.8
-30.25
-57.8
-74.1
-66.25
-34.81
5.83
35.71
40.74
20.9
-9.69
-31.28
-30.18
-6.92
23.83
42.1
34.38
1.92
-39.65
-69.39
-73.02
-50.93
-17.85
6.57
9.41
-7.9
-30.6
-40
-25.08
10.14
48.37
68.74
58.78
21.84
-24.53
-58.6
-66.48
-49.48
-22.78
-5.51
-9.24
-30.93
-55.06
-63.42
-46.59
-10.62
25.97
42.62
28.61
-10.37
-55.32
-84.69
-86.32
-63.84
-33.74
-14.75
-16.63
-34.48
-52.27
-53.47
-31.78
4.17
35.71
45.35
27.33
-8.54
-42.63
-57.09
-46.06
-18.72
6.73
14.59
1.06
-23.59
-41.43
-38.23
-12.3
23.88
50.84
53.36
29.37
-8.48
-39.92
-48.29
-29.57
5.67
39.05
55.21
50.35
33.89
22
27.31
51.14
82.56
105.21
107
87.33
57.49
34.13
29.64
45.1
69.8
87.62
86.37
64.96
33.9
9.24
3.39
18.25
44.13
65.65
70.49
56.45
32.44
12.9
9.06
21.94
41.37
51.89
42.2
11.92
-27.1
-57.23
-64.68
-47.26
-16.29
9.67
14.95
-4.3
-37.76
-66.83
-75.34
-59.09
-28.5
-2.24
3.69
-14.43
-45.49
-70.46
-73.83
-53.39
-22.16
-0.73
-5.05
-36.52
-80.71
-115.84
-125.37
-107.6
-75.92
-50.03
-43.52
-55.72
-72.29
-74.79
-52.7
-10.53
34.19
61.33
59.7
33.7
0.54
-20.06
-16.99
6.48
35.47
53.33
51.57
34.58
16.43
11.52
25.55
51.91
75.58
82.46
67.68
38.82
11.66
1.15
13.16
41.15
70.02
84.69
78.56
57.11
34.57
25.7
37.17
63.29
89.04
98.71
85
53.7
20.51
1.86
5.21
23.98
41.26
39.88
12.71
-32.62
-77.66
-103.95
-103.66
-84.25
-64.09
-61.35
-83.19
-121.24
-156.25
-169.51
-153.67
-117.08
-78.5
-55.95
-56.24
-71.04
-82.67
-75.18
-44.2
0.17
39.64
58.8
54.28
36.81
24.44
31.49
59.93
98.2
127.97
134.98
117.12
85.84
59.36
52.54
68.83
98.17
122.85
127.06
105.33
65.26
23.14
-5.21
-13.17
-6.84
-0.93
-9.54
-37.11
-75.05
-106.51
-116.53
-101.46
-72.03
-47.09
-42.38
-61
-91.25
-113.86
-113.8
-89.55
-54.28
-27.77
-24.52
-45.04
-75.15
-94.5
-88.34
-55.69
-9.45
31.68
54.02
56.07
48.54
46.62
60.51
89.13
120.61
139.47
135.55
110.23
75.98
49.62
43.11
56.94
79.65
94.46
88.97
62.41
26.44
-1.66
-9.11
4.36
25.65
35.93
21.5
-17.73
-67.52
-106.93
-119.94
-104.59
-73.77
-47.61
-41.88
-59.24
-88.01
-110.13
-112.17
-93.36
-65.54
-44.81
-41.04
-51.24
-61.43
-55.85
-27.42
17.08
60.67
86.02
85.76
66.61
45.54
39.66
56.56
90.21
124.08
140.58
130.22
96.97
55.89
25.33
17.46
31.72
55.48
71.2
66.33
40.28
4.67
-23.78
-33.45
-25.08
-11.1
-7.39
-22.96
-53.61
-84.37
-98.82
-89.74
-64.32
-39.84
-33.09
-49.96
-81.35
-108.27
-113.26
-90.42
-48.64
-6.63
18.21
19.2
4.04
-10.26
-7.31
19.2
61.68
102.83
125.16
120.54
94.67
63.37
43.64
43.87
58.88
73.21
70.58
43.88
0.17
-43.16
-68.47
-68.38
-50.62
-33.32
-34.1
-59.41
-100.37
-137.89
-154.09
-142.45
-111.09
-77.06
-55.34
-50
-52.1
-46.47
-22.23
19.48
65.15
96.64
101.71
81.16
48.97
24.33
21.37
41.73
73.75
99.08
102.79
81.38
44.8
10.63
-5.6
0.76
20.58
36.48
32.78
5.14
-36.5
-73.17
-88.02
-76.43
-49.12
-25.75
-23.21
-45.51
-81.22
-110.33
-116.22
-95.41
-59.13
-25.9
-10.21
-13.73
-24.65
-25.88
-5.79
34.5
81.53
117.73
131.46
123.46
106.15
95.69
102.54
125.24
150.82
162.14
147.72
108.46
57.65
14.02
-8.32
-7.54
5.17
12.33
0.56
-31.24
-71.08
-100.85
-107.07
-89.29
-60.42
-38.78
-37.43
-56.28
-82.17
-97.35
-90.22
-62.44
-27.86
-3.8
-0.42
-14.45
-31.21
-34.05
-14.66
21.66
58.81
79.26
74.07
48.04
17.09
-0.73
5
31.14
62.72
81.28
74.87
44.67
4.13
-28.76
-41.74
-35.05
-20.56
-13.61
-22.98
-44.98
-65.51
-69.4
-50.66
-17.27
13.04
23.29
7.39
-25.84
-57.52
-69.49
-54.06
-17.79
22.48
49.23
53.44
38.98
19.45
10.16
19.25
42.95
67.84
78.84
67.98
39.55
7.56
-12.45
-12.78
1.17
14.13
10.27
-16.47
-58.1
-96.17
-112.87
-101.43
-70.06
-37.09
-19.82
-24.47
-42.55
-56.4
-49.88
-18.1
29.42
74.08
98.5
95.88
73.43
47.66
35.09
43.09
65.92
88.39
94.79
77.8
42.96
5.14
-20.24
-26.39
-19.48
-14.49
-25.72
-57.04
-98.6
-131.44
-138.8
-116.1
-73.88
-32.13
-8.68
-9.36
-24.82
-37.06
-30.15
0.27
44.34
83.78
102.11
93.81
67.06
38.51
23.64
28
44.06
56.21
50.4
22.79
-17.26
-52.67
-68.8
-62.24
-43.15
-28.69
-32.26
-54.79
-83.87
-101.07
-93.44
-61.75
-20.19
12.13
22.28
11.12
-7.4
-15.22
-0.77
34.25
75.84
106.22
113.85
99.69
76.28
59.91
61.19
78.82
99.88
107.22
89.1
46.36
-7.33
-52.23
-72.98
-66.91
-45.18
-25.95
-23.81
-41.13
-67.03
-84.58
-81.38
-57.55
-25.5
-1.79
2.94
-9.19
-24.59
-26.91
-7.17
30.3
69.86
93.41
90.83
65.63
33
10.84
9.59
26.23
45.97
51.09
31.26
-9.94
-56.95
-90.68
-99.24
-84.79
-61.7
-47.83
-54.04
-77.65
-103.9
-115.24
-101.45
-65.75
-22.91
9.76
22.16
17.21
8.51
11.86
35.46
74.54
113.68
135.39
130.19
102.23
66.98
42.43
38.83
52.55
68.39
68.76
44.49
0.82
-45.3
-75.13
-79.34
-63.56
-44.74
-40.44
-58.22
-90.73
-120.03
-128.52
-109.16
-69.6
-27.24
1.09
8.84
3.09
-0.63
11.72
43.8
86.06
120.77
131.98
114.34
76.45
36.2
11.04
8.77
23.34
38.69
38.29
14.95
-24.93
-64.75
-87.71
-86.38
-66.89
-44.48
-33.49
-38.32
-50.53
-54.67
-38.77
-2.84
40.04
70.99
76.34
55.69
22.7
-2.7
-5.1
18.21
55.58
87.62
97.51
79.81
43.18
5.31
-17.1
-17.64
-3.72
8.25
2.92
-24.36
-64.2
-98.48
-111.21
-98.33
-70.35
-45.73
-39.7
-54.8
-78.99
-93.24
-82.82
-45.91
5.33
52.03
79.25
83.76
75.05
68.53
75.91
97.92
123.28
135.31
121.65
81.89
28.68
-18.91
-45.62
-48.15
-36.65
-27.97
-35.2
-59.33
-88.61
-105.64
-98.44
-68.45
-30.08
-2.26
2.46
-14.69
-39.28
-52.63
-42.43
-9.65
32.02
64.37
74.69
62.77
40.65
25.29
28.74
51.18
80.52
99.62
96.24
70.39
34.61
6.63
-1.08
10.85
28.88
34.68
16.4
-23.58
-69.36
-100.68
-104.71
-83.46
-52.2
-29.91
-28.03
-43.83
-62.33
-65.95
-45.07
-3.98
41.26
72.02
77.42
60.34
35.23
19.5
23.47
44.47
68.54
79.09
66.69
35.19
-0.73
-24.27
-26.65
-12.81
1.73
0.72
-22.39
-59.97
-94.01
-107.13
-93.03
-60.39
-27.61
-11.92
-19.21
-40.69
-58.43
-56.05
-28.4
15.5
57.51
80.58
77.75
55.85
30.92
19.11
27.76
50.92
72.79
76.67
54.53
12.16
-33.51
-63.82
-68.96
-53.53
-33.68
-27.1
-42.12
-72.24
-100.09
-107.89
-88.15
-48.34
-5.83
22.3
29.18
21.7
15.27
23.92
51.41
88.56
118.53
126.75
109.36
75.93
43.8
28.28
33.78
51.04
62.8
54.18
21.86
-23.65
-63.78
-82.92
-77.71
-58.88
-44.31
-48.1
-71.78
-102.95
-122.9
-117.73
-86.48
-41.67
-1.56
20.43
22.97
17.14
18.74
38.48
75.08
115.04
139.89
136.19
103.42
54.82
10.9
-11.1
-6.37
15.04
34.17
34.15
9.74
-29.57
-65.81
-83.39
-78.44
-60.55
-45.62
-45.26
-59.13
-74.94
-76.65
-54.97
-13.87
31.21
62.06
68.32
53.27
31.74
21.12
31.1
58.07
86.95
100.45
88.96
56.55
18.45
-7.82
-12.57
0.04
14.85
14.93
-7.86
-47.68
-87.48
-109.06
-103.72
-77.36
-46.77
-29.56
-33.68
-52.78
-70.22
-69.32
-43.29
0.59
45.04
72.49
74.59
56.67
34.09
23.42
33.22
59
85.63
95.86
79.98
41.7
-3.51
-37
-47.36
-36.96
-20.16
-14.23
-28.56
-58.69
-89
-102.5
-91.45
-62.3
-31.08
-13.42
-14.73
-27.02
-34.45
-23.71
7.37
48.11
81.07
92.54
80.22
54.82
33.34
29.28
44.91
69.41
85.22
77.82
44.4
-4.19
-48.64
-71.74
-67.77
-45.46
-22.87
-16.78
-32.83
-62.03
-86.43
-89.68
-66.97
-28.03
9.12
28.73
26.81
13.1
4.55
14.51
44.21
81.41
107.64
109.28
85.76
50.27
21.93
14.64
28.71
50.61
61.13
47.07
9.28
-37.34
-72.53
-82.44
-67.34
-40.76
-20.46
-17.74
-30.73
-46.26
-48.81
-30.47
3.73
38.73
58.49
55.61
35.9
14.84
8.37
23.42
53.66
82.54
92.75
75.66
36.58
-8.19
-40.06
-48.35
-36.29
-18.78
-13.69
-31.3
-68.23
-109.05
-135.38
-136.2
-113.93
-82.29
-57.44
-48.2
-50.73
-51.67
-37.25
-2.88
42.73
82.07
98.85
87.71
57.85
27.94
15.49
27
54.05
78.13
81.39
56.92
13.04
-31.27
-57.22
-56.76
-37.08
-15.89
-10.6
-27.99
-59.89
-87.99
-94.92
-74.46
-35.56
3.17
24.44
22.44
6.13
-6.78
-0.81
27.62
67.45
99.33
106.91
86.35
48.87
14.15
-1.01
7.57
28.96
43.9
36.42
3.58
-42.37
-81.02
-95.72
-82.99
-53.86
-26.65
-15.62
-22.55
-36.4
-41.04
-25.75
7.77
46.32
73.24
78.29
63.61
42.31
30.26
36.71
58.85
83.12
93.4
80.32
47.14
8.24
-18.69
-22.67
-6.15
16.29
26.18
12.05
-23.98
-66.68
-96.83
-102.21
-84.54
-57.99
-40.21
-41.67
-59.21
-78.19
-81.73
-61.05
-21.2
21.74
49.77
53.31
36.62
14.98
5.56
17.44
46.21
76.55
91.45
82
52.97
19.7
-1.16
-1.62
12.4
24.84
19.57
-9.26
-53.01
-92.81
-110.73
-100.44
-70.89
-41.01
-28.49
-39.39
-64.59
-85.56
-85.31
-58.25
-13.24
31.85
60.36
65.86
55.34
44.02
46.19
66.56
96.95
120.73
122.18
95.7
49.74
2.86
-26.22
-29.07
-12.28
6.45
9.05
-12.15
-49.64
-85.48
-102.29
-93.82
-68.34
-42.58
-31.05
-36.86
-49.9
-53.95
-37.23
-0.31
43.62
76.24
84.81
69.49
43.32
24.29
24.97
45.2
72.08
87.89
80.55
50.91
12.27
-17.5
-26.6
-16.48
-0.78
3.13
-14.83
-51
-89.32
-110.71
-104.24
-73.73
-35.22
-7.45
-0.89
-11.9
-25.32
-24.35
-0.84
39.69
80.85
104.9
102.38
77.46
45.46
24.37
25.34
46.52
74.11
90.09
82.15
50.69
8.84
-25.17
-38.43
-30.88
-15.04
-7.74
-19.45
-47.32
-76.94
-91.49
-82.41
-55.11
-25.24
-8.76
-11.99
-27.78
-40.25
-35.31
-9.68
26.7
56.21
64.29
47.92
17.88
-7.64
-13.4
4.12
34.18
57.83
58.54
31.74
-12.61
-55.07
-77.81
-74.51
-53.49
-32.5
-27.9
-44.91
-74.26
-98.05
-100.55
-77.41
-38.33
-0.63
20.92
22.69
13.81
9.75
22.47
52.76
89.2
114.66
116.33
93.11
56.85
25.58
13.43
22.64
42.1
54.24
45.55
15.13
-24.73
-55.47
-63.61
-49.07
-25.09
-9.83
-15.36
-39.9
-68.32
-81.41
-67.05
-27.13
23.12
64.21
82.87
78.97
64.76
56.87
66.32
91.55
118.89
130.15
113.14
68.96
12.14
-37.24
-64.5
-67.9
-58.99
-54.34
-65.17
-89.99
-115.86
-126.84
-114.23
-82.57
-46.76
-22.87
-18.41
-27.9
-36.42
-29.24
-1.07
40.38
78.28
96.5
88.57
61.6
32.22
17.03
23.29
44.45
63.95
64.96
40.49
-2.32
-45.54
-71.03
-70.72
-51.01
-28.76
-20.69
-33.37
-58.88
-79.6
-78.83
-50.67
-4.12
41.95
69
68.94
48.02
22.56
9.03
14.52
32.73
48.12
45.65
20.04
-20.36
-58.42
-78.32
-74.83
-56.49
-39.79
-38.7
-55.41
-78.83
-91.11
-79.09
-42.91
3.55
40.44
53.39
41.57
18.13
2.04
7.23
34.55
71.04
97.45
98.85
73.09
31.93
-5.37
-22.75
-16.26
4.08
20.42
17.76
-7.16
-43.66
-73.8
-82.96
-68.56
-41.13
-17.19
-8.71
-15.41
-25.13
-21.86
3.64
47.23
92.82
121.43
122.15
98.41
66.28
44.91
45.71
65.63
88.9
96.32
76.58
33.1
-17.65
-55.51
-68.14
-57.68
-38.74
-28.84
-37.76
-61.75
-86.21
-95.19
-81.14
-49.68
-16.18
3.49
2.27
-13.92
-30.04
-30.9
-10.35
24.75
58.17
73.53
63.52
34.35
2.08
-16.76
-14.61
2.34
18.22
17.34
-5.87
-43.09
-76.44
-89.3
-76.2
-46.14
-16.99
-4.85
-14.46
-36.47
-53.29
-49.58
-21.36
21.49
60.86
80.35
74.08
49.77
23.7
11.38
18.96
39.41
56.85
55.79
30.44
-11.15
-50.98
-71.27
-64.59
-38.27
-10.15
2.04
-8.64
-34.13
-56.4
-58.22
-33.52
8.74
50.25
73.65
72.43
54.24
35.5
31.28
46.2
71.5
90.5
88.73
62.68
22.39
-14.43
-32.78
-29.1
-13.37
-2.38
-9.07
-33.95
-64.56
-82.84
-76.5
-47.12
-9.27
18.03
22.48
5.77
-17.46
-28.81
-16.88
16.18
55.58
82.67
85.06
63.52
31.22
6.22
1.57
17.88
43.2
59.84
54.68
26.64
-12.43
-45.01
-58.21
-51.4
-36.29
-28.96
-39.57
-65.33
-92.1
-103.24
-90.02
-57.59
-21.71
0.59
1.3
-13.94
-29.47
-29.45
-7.58
29.01
63.5
79.39
69.82
41.79
11.99
-2.87
4.47
27.03
47.78
49.37
24.45
-19.84
-65.21
-92.74
-93.49
-73.21
-48.8
-37.87
-48.23
-73.03
-95.14
-97.49
-73.25
-30.22
14.28
43.25
49.87
41.14
32.8
39.5
65.6
102.09
131.66
138.96
119.55
83.05
47.54
29.15
32.71
48.6
58.66
47.26
11.07
-38.48
-81.11
-99.57
-89.7
-62.73
-38.53
-33.81
-52.61
-83.79
-108.27
-110.31
-86.53
-47.5
-10.56
10.44
13.04
6.87
6.62
22.47
53.45
87.61
109.19
107.88
85.22
54.21
31.88
30
48.51
75.56
94.51
93.5
72.29
42.34
19.98
16.8
32.59
54.98
66.62
55.15
20.61
-23.85
-59
-69.9
-54.24
-23.51
3.82
12.83
0.54
-22.57
-39.62
-37.8
-16.6
11.34
28.05
20.87
-9.27
-47.85
-74.92
-76.53
-52.87
-18.23
7.3
9.34
-12.68
-45.37
-69.79
-72.6
-53.83
-26.67
-9.04
-12.76
-36.04
-64.54
-79.98
-71.21
-41.15
-5.3
17.29
15.09
-9.23
-40.31
-59.44
-55.35
-30.75
-0.63
16.78
10.73
-15.48
-46.51
-63.85
-56.83
-28.94
4.3
24.55
21.69
-0.14
-25.04
-35.09
-21.07
11.62
46.07
63.59
54.73
24.9
-8.64
-26.84
-19.91
7.22
38.28
55.52
50.12
27.34
2.89
-6.86
5.48
33.77
62.54
76.33
68.95
47.02
25.74
19.35
32.4
57.08
78.15
82.29
66.15
38.45
14.55
7.15
18.84
40.41
57.06
57.54
41.22
18.48
4.11
7.81
27.45
49.6
57.05
39.09
-1.87
-50.58
-87.33
-98.62
-84.54
-58.78
-40.33
-42.5
-65.01
-94.23
-111.25
-103.29
-71.92
-32.81
-7.27
-10.08
-40.74
-82.97
-113.82
-115.96
-86.89
-39.88
4.29
29
30.68
19.81
13.42
24.34
53.06
87.74
111.72
113.96
95.63
69.47
51.42
50.72
64.35
79
80.06
61.03
28.17
-2.73
-15.97
-5.36
21.3
46.45
52.73
32.69
-7.1
-49.37
-76.27
-78.96
-62.31
-41.81
-34.12
-47.34
-75.84
-103.37
-112.24
-93.68
-53.61
-9.66
18.39
19.65
-1.65
-28.7
-41.86
-29.72
4.53
45.36
74.37
80.81
67.37
47.87
37.91
45.1
64.3
81.17
81.66
61.06
27.52
-2.51
-14.19
-2.98
22.46
45.39
51.04
35.13
6.58
-18.07
-24.58
-9.75
16.08
34.89
31.57
2.68
-40.72
-79.21
-95.72
-85.09
-57.23
-31.27
-24.63
-43.02
-77.24
-108.45
-119.24
-103.57
-70.14
-37.12
-21.57
-29.58
-52.79
-73.53
-75.3
-52.64
-14.67
20.31
35.59
25.77
0.4
-21.94
-24.52
-2.18
35.76
71.37
88.75
83.22
63.54
46.05
44.47
61.48
87.27
105.98
105.59
85.29
56.08
33.86
29.85
43.99
64.98
77.81
72.99
52.53
28.8
16.61
23.96
46.48
69.33
75.71
56.77
16.82
-28.34
-60.37
-68.28
-54.23
-32.04
-18.63
-24.17
-46.1
-70.72
-81.79
-70.42
-41.33
-10.61
3.08
-10.61
-47.23
-89.54
-117.07
-117.44
-93.12
-59.8
-36.82
-35.85
-54.12
-76.1
-83.26
-65.28
-26.93
14.23
37.64
31.66
0.45
-37.77
-60.98
-55.43
-23.11
19.83
52.87
62.59
50.07
29.51
18.95
29.43
58.13
90.42
108.7
102.85
76.21
43.55
22.21
22
39.76
61.83
72.66
64.27
40.84
16.05
4.41
12.35
34.23
55.92
63.74
52.73
29.81
9.45
4.71
19.25
44.48
64.6
65.87
44.66
10.05
-21.12
-33.95
-24.03
-0.25
20.15
21.81
0.3
-35.04
-66.46
-78.23
-65.83
-39.09
-16.25
-13.32
-34.56
-69.76
-100.29
-110
-94.77
-64.96
-39.26
-33.5
-51.15
-80.92
-103.57
-103.28
-76.94
-36.46
-1.82
10.17
-4.61
-35.22
-62.34
-69.29
-51.55
-19.16
9.53
18.78
4.65
-22.4
-43.86
-44.24
-20.25
16.92
48.34
58.22
43
13.43
-12.07
-18.2
-1.6
27.74
52.95
60.42
47.91
25.5
9.28
11.36
32.49
61.35
81.55
81.41
60.91
32.07
11.33
9.9
27.06
50.82
65.88
63.15
45.16
24.46
15.52
25.72
50.37
75.21
84.84
71.76
40.97
7.3
-13.31
-12.84
4.2
23.59
30.45
18.25
-6.8
-29.53
-35.03
-17.94
13.47
41.59
49.49
30.72
-6.75
-44.81
-65.52
-61.1
-38.15
-13.65
-4.7
-18.64
-48.68
-78
-89.92
-77.69
-48.76
-20.53
-10.24
-25.03
-57.41
-89.59
-103.44
-90.78
-58.11
-22.7
-2.72
-6.9
-29.59
-54.21
-63.18
-48.28
-15.73
17.42
33.18
23.04
-6.66
-38.5
-53.93
-43.89
-14.07
18.68
36.15
29.51
4.41
-22.4
-33.06
-19.22
12.92
46.71
65.06
60.59
40.07
19.53
14.16
28.77
54.73
75.61
77.13
55.64
20.42
-11.97
-27.25
-21.16
-1.52
17.09
22.07
10.22
-10.38
-25.29
-22.57
-0.35
31.17
55.46
59.26
40.55
10.19
-14.43
-19.72
-4.13
21.08
39.17
38.21
18.05
-9.46
-28.28
-27.86
-9.38
15.34
31.43
29.69
11.73
-11.21
-25.44
-22.99
-6.14
13.82
23.68
16.14
-5.48
-28.78
-39.46
-29.54
-2.71
27.31
44.53
40.01
17.2
-9.87
-24.93
-19.24
2.81
26.4
35.57
23.16
-4.86
-32.5
-43.76
-32.24
-5.19
21.11
31.35
20.34
-4.31
-26.59
-32.21
-16.88
11.18
36.24
44.47
31.83
6.24
-17.07
-24.63
-12.31
12.32
34.62
41.55
29.23
5.21
-16.17
-22.35
-10.01
12.53
30.26
30.59
11.15
-18.39
-41.68
-45.43
-27.46
1.21
22.72
22.75
-0.61
-35.42
-62.2
-65.18
-41.36
-2.59
31.32
43.96
31.63
5.04
-17.04
-18.99
2.62
37.16
66.46
75.49
61
32.98
8.4
0.87
12.78
34.01
48.57
44.54
21.38
-9.45
-31.53
-33.31
-15.06
10.91
27.67
23.82
0.41
-29.25
-47.28
-41.63
-13.28
23.61
49.55
50.63
26.46
-9.32
-36.68
-40.34
-18.45
16.22
43.72
48.18
27.09
-7.56
-36.49
-44.59
-29.84
-4.28
13.71
10.78
-13.12
-44.62
-65.36
-63.34
-40.39
-11.36
4.78
-3.51
-33.5
-69.38
-91.78
-89.01
-63.8
-32.08
-13.72
-21.31
-52.85
-92.37
-118.87
-117.64
-88.5
-45.99
-11.05
0.75
-11.98
-35.75
-50.28
-40.51
-5.82
39.66
75.54
87.17
74.34
51.25
37.31
45.35
73.89
108.51
130.81
129.42
106.37
75.52
53.64
50.65
64.02
81.12
87.57
76.12
51.15
25.78
13.48
19.6
37.59
52.95
52.15
31.19
-1.39
-29.27
-38.09
-24.17
2.85
25.47
28.91
9.64
-22.63
-50.66
-60.32
-48.71
-26.08
-9.77
-13.88
-40.83
-79.55
-111.74
-122.12
-107.21
-77.62
-51.86
-45.84
-63.69
-95.23
-121.65
-126.11
-103.21
-62.28
-21.94
0.3
-2.24
-21.83
-41.54
-45.42
-28
2.56
29.29
36.58
19.47
-12.84
-42.15
-51.48
-34.7
-0.25
33.86
50.37
42.7
18.88
-3.63
-8.14
11.19
45.78
78.04
91.98
83.04
60.65
42.17
42.03
62.51
92.4
114.31
115.37
95.38
66.74
46.4
45.29
61.43
81.56
89.69
77.25
48.35
17.29
-0.62
1.51
17.79
32.93
31.77
8.46
-29.69
-66.15
-84.95
-79.86
-58.28
-37.36
-34.3
-56.64
-97.59
-139.17
-161.78
-154.49
-121.16
-78.47
-46.96
-39.92
-55.97
-80.13
-92.34
-79.16
-41.88
4.24
38.96
49.07
36.45
16.92
10.29
28.23
66.84
109.04
134.92
133.33
108.11
75.49
53.8
52.89
68.93
87.57
93.34
78.94
49.4
18.87
1.85
4.83
22.32
40.48
45.46
31.7
5.59
-18.4
-26.43
-13.71
11.92
34.59
39.97
23.92
-4.76
-29.57
-36.41
-22.33
2.28
19.84
16.34
-10.14
-47.93
-78.41
-86.97
-71.49
-43.83
-23.04
-24.33
-50.42
-89.5
-122.01
-131.55
-113.99
-80.16
-49.4
-38.55
-52.09
-79.25
-100.15
-97.33
-66.16
-17.86
26.81
49.6
44.85
22.65
2.03
-0.67
18.55
49.49
74.68
80.21
63.89
36.31
13.91
8.92
22.6
44.93
61.5
62.43
48.05
28.56
17.2
21.93
40.21
59.8
65.98
50.25
15.96
-22.53
-47.43
-47.09
-22.87
11.28
36.6
39.95
21.02
-7.69
-28.66
-29.89
-12.31
11.02
23.03
13.57
-14.02
-44.44
-59.8
-50.47
-21.33
10.62
25.89
13.71
-21.49
-62.26
-87.69
-84.74
-55.3
-14.98
15.8
23.07
6.83
-19.31
-36.55
-31.93
-6.04
27.85
52.14
55.71
40.5
19.98
10.24
19.77
44.08
68.99
79.87
70.91
48.83
28.53
23.53
37.51
61.69
79.97
78.8
55.18
18.96
-12.56
-24.62
-13.31
11.69
32.43
32.78
7.59
-34.02
-73.88
-94.71
-89.94
-67.46
-44.61
-37.7
-52.18
-79.23
-101.04
-101.7
-77.07
-37.83
-3.42
9.14
-4.93
-35.17
-62.19
-68.89
-49.96
-14.5
19.6
36.08
29.11
6.1
-17.06
-25.6
-13.76
12.18
38.45
52.28
49.38
36.56
27.06
32.33
54.53
84.4
106.51
108.36
88.12
56.58
31.17
26.1
43.73
72.78
94.93
95.37
71.36
33.85
0.71
-14.08
-8.69
5.81
12.83
0.99
-28.64
-62.67
-83.82
-81.45
-58.41
-29.96
-14.96
-24.95
-57.21
-95.71
-120.09
-116.81
-86.81
-45.37
-13.78
-7.83
-28.98
-63.36
-89.6
-90.53
-63.05
-19.73
18.66
35.2
26.51
4.15
-13.12
-11.24
10.42
39.34
58.28
56.56
36.8
13.26
2.32
12.15
37.51
63.43
74.88
66.01
43.6
22.61
16.5
28.84
50.96
66.92
63.31
37.24
-1.47
-35.5
-49.89
-40.34
-16.06
5.27
7.32
-15.59
-54.91
-92.34
-109.63
-98.58
-65.85
-28.98
-6.47
-7.28
-25.79
-45.34
-48.47
-27.44
10.68
48.12
66.79
58.71
30.81
0.68
-13.97
-5.31
20.55
47.78
60.73
53.09
31.25
10.15
3.88
17.35
43.26
66.74
74.53
62.92
40.41
22.4
21.89
41.27
70.05
90.82
89.53
63.89
25.34
-7.46
-19.49
-8.34
14.28
29.5
22.78
-7.48
-48.63
-81.26
-90.52
-74.73
-46.66
-25.98
-28.02
-54.83
-93.77
-124.71
-131.13
-109.48
-71.09
-35.41
-18.8
-25.39
-44.9
-59.35
-54.1
-26.79
11.22
41.86
51.22
37.63
12.48
-7.22
-9.08
7.42
31.4
47.95
47.58
31.91
12.44
2.81
9.93
29.39
47.47
49.58
29.08
-8.04
-45.53
-65.87
-59.79
-31.98
1.03
19.8
12.71
-17.52
-55.05
-79.78
-78.5
-52.54
-16.87
8.75
11.5
-6.92
-31.28
-42.27
-28.3
7.01
46.95
71.7
70.06
46.06
16.57
0.84
9.37
38.08
71.35
91.83
90.46
70.99
47.25
34.1
38.73
56.79
75.74
82.96
73.43
52.57
32.67
24.93
32.44
47.85
57.86
51.51
27.06
-6.22
-33.18
-41.59
-29.43
-6.64
10.11
7.19
-18.37
-56.88
-91.03
-105.67
-96.07
-70.86
-47.17
-41.03
-58.09
-90.26
-119.91
-129.6
-111.88
-73.88
-33.24
-8.27
-7.53
-24.92
-43.67
-46.53
-26.27
9.61
43.52
58.45
48.61
23.31
1.45
0.11
24.12
62.97
97.27
110.46
98.67
72.83
51.56
49.59
68.71
96.59
114.5
108.64
78.47
37.21
3.78
-8.28
1.25
19.3
27.56
13.5
-21.99
-64.8
-95.81
-101.71
-82.61
-52
-28.94
-27.48
-48.93
-81.28
-106.54
-110.7
-91.23
-58.16
-27.64
-12.83
-16.69
-30.82
-41.3
-37.36
-18.08
7.04
24.24
24.38
9.05
-9.54
-15.98
-1.16
31.24
65.79
83.8
73.88
39.12
-3.79
-33.67
-36.39
-13.05
20.78
44.01
42.16
15.53
-20.8
-46.07
-45.81
-20.3
15.94
43.16
47.99
31.07
6.17
-8.87
-3.06
21.35
50.85
69.57
68.9
52.29
32.44
22.65
28.4
43.87
55.67
51.63
28.66
-4.59
-32.17
-40.11
-24.62
4.86
30.58
36.23
16.17
-21.1
-57.52
-75.53
-67.92
-42.04
-15.11
-3.93
-15.07
-41.14
-65.12
-70.73
-51.9
-16.28
19.63
40.13
39.21
23.41
7.14
3.58
16.72
39.05
56.58
57.91
41.39
16.87
-0.26
1.55
22.56
50.33
66.4
56.77
20.39
-29.33
-71.46
-88.8
-77.38
-48.62
-22.58
-16.35
-34.5
-66.52
-93.4
-98.67
-77.68
-40.27
-4.55
13.34
8.48
-10.54
-27.12
-26.72
-5.6
27.06
54.93
64.58
53.64
32.31
16.56
18.08
36.71
60.25
72.34
63.08
35.61
4.88
-11.59
-4.47
20.94
47.27
54.72
32.3
-15.63
-70.9
-111.22
-121.42
-100.54
-61.57
-23.28
-0.27
4.45
-0.6
-1.84
10.35
35.02
61.41
75.71
70.03
48
23.06
10.22
16.76
37.22
56.18
57.76
35.54
-2.67
-38.51
-53.49
-39.73
-5.31
30.09
45.94
32.13
-5.46
-48.07
-74.74
-73.33
-46.47
-9.41
19.07
26.82
14.6
-5.51
-17.85
-12.61
8.16
32.3
45.29
39.26
18.16
-4.69
-15.12
-7.14
12.68
28.69
26.04
0.16
-39.24
-72.98
-83.24
-64.15
-26
10.3
24.54
8.33
-30.23
-71.16
-93.65
-86.99
-55.85
-16.64
12.02
19.68
8.98
-6.87
-13.03
-2.21
20.93
43.12
51.33
41.08
19.89
2.69
2.65
22.78
53.35
77.08
79.27
56.55
19.44
-13.64
-26.89
-16.37
7.4
25.84
23.12
-4.39
-45.46
-80.29
-91.74
-75.09
-40.81
-8.11
6.15
-2.78
-25.49
-44.45
-44.95
-23.8
9.38
38.77
52.53
49.99
41.79
42.28
59.86
90.73
120.19
131.18
114.56
75.03
29.53
-2.06
-7.74
9.92
35.03
47.22
33.06
-6.34
-55.76
-94.08
-105.57
-88.05
-53.57
-20.96
-5.22
-9.55
-24.48
-34.86
-29.69
-9.19
15.43
29.62
24.83
4.3
-18.48
-28.25
-17.63
7.8
31.86
36.95
14.43
-29.96
-78.4
-110.3
-113.05
-88.74
-52.37
-23.74
-16.63
-31.5
-55.7
-71.38
-65.68
-38.17
-0.53
30.93
45.02
41.91
32.48
30.41
43.06
66.37
86.97
90.98
72.97
39.99
8.07
-7.18
0.14
22.49
43.02
45.14
22.3
-18.08
-58.39
-80.45
-75.19
-47.67
-13.64
9.23
10.81
-6.08
-27.98
-39.17
-30.87
-6.52
20.73
36.25
32.97
15.78
-1.33
-4.16
12.7
42.2
68.6
77.32
63.8
36.62
12.16
4.71
17.41
40.06
55.22
48.6
17.84
-25.48
-62.37
-77.18
-66.36
-40.83
-19.2
-17.2
-38.68
-73.46
-102.97
-111.01
-92.6
-56.57
-19.88
2.4
5.7
-2.18
-6.89
2.86
27.75
57.43
77.49
79.09
65.07
48.83
45.75
63.32
95.31
124.04
129.85
102.12
45.63
-20.98
-74.61
-99.17
-93.23
-70.25
-50.44
-49.7
-70.92
-102.75
-126.34
-126.32
-99.66
-57.2
-17.1
5.56
7.25
-2.73
-8.8
0.95
27.16
58.92
80.97
83.48
68.44
48.5
38.79
47.06
68.37
87.68
89.09
66.03
25.91
-13.28
-33.26
-25.86
1.92
31.68
43.82
28.28
-10.11
-54.02
-83.21
-84.9
-59.83
-21.01
14.25
33.46
35.07
27.66
23.52
30.49
46.5
60.98
61.71
43.03
10.54
-21.24
-37.29
-31.21
-9.82
10.11
11.6
-12.3
-53.51
-92.89
-110.79
-98.19
-62.27
-22.11
2.16
0.69
-20.85
-44.9
-52.82
-35.68
0.77
40.11
65.39
68.83
56.1
41.78
39.7
53.97
75.91
89.33
80.67
47.88
2.7
-35.5
-50.49
-38.36
-10.11
14.59
18.39
-4.01
-42.61
-77.88
-91.71
-77.56
-44.02
-9.21
9.97
7.43
-9.06
-23.53
-22.06
-1.42
28.94
53.36
60.05
48.51
30.04
20.3
29.23
53.91
79.53
87.46
66.21
18.59
-38.66
-83.47
-99.64
-84.72
-51.02
-18.14
-2.53
-8.89
-28.67
-45.82
-46.82
-28.85
-1.32
20.27
24.23
10.06
-10.91
-23.01
-16.26
6.8
31.87
41.73
26.96
-7.62
-44.93
-65.53
-58.81
-29.57
4.54
22.85
13.18
-21.56
-64.58
-94.76
-97.74
-73.14
-33.96
1.75
20.89
22.36
16.12
15.82
29.48
53.72
75.72
81.58
65.54
34.67
5.74
-4.52
10.79
43.92
76.3
88.68
71.88
32.16
-11.75
-38.93
-37.47
-10.54
26.04
53.26
59.51
46.2
25.71
12.8
15.27
29.11
41.65
40.2
20.55
-9.42
-34.2
-40.09
-23.87
4.24
25.94
25.27
-2.07
-45.62
-85.6
-103.73
-92.93
-61.2
-26.47
-6.62
-9.78
-30.48
-53.4
-62.68
-50.92
-23.16
6.92
25.74
28.23
20.93
17.41
29.2
57.38
90.5
110.37
102.77
66.22
14.2
-31.86
-53.99
-47.32
-22.59
0.49
4.54
-15.73
-50.85
-82.35
-93.77
-79.99
-49.96
-20.59
-6.56
-11.56
-26.57
-36.22
-28.9
-4.48
25.12
43.43
39.75
16.19
-12.89
-29.43
-22.35
5.24
37.48
54.39
43.27
6.06
-41.04
-76.64
-85.38
-65.68
-29.72
4.57
23.68
25.62
19.49
18.48
30.88
54.19
76.37
83.4
68.08
35.31
0.28
-19.87
-15.66
8.95
38.53
54.82
47.16
18.81
-14.59
-34.13
-28.3
0.29
36.6
62.06
64.93
46.52
19.84
1.15
0.35
15.09
32.43
37.16
21.16
-11.19
-45.15
-64.54
-61.56
-41.98
-22.19
-19.31
-40.73
-78.76
-114.48
-128.25
-110.7
-68.34
-19.49
15.97
27.4
18.6
4.29
0.39
14.16
39.99
63.21
69.82
55.41
28.54
5.56
0.55
16.3
41.93
59.06
52.8
20.98
-23.79
-60.71
-72.37
-54.26
-17.22
19.09
37.3
31.79
11.47
-6.17
-5.72
16.77
51.26
79.64
86.57
68.56
36.23
7.62
-2.72
7.41
26.4
36.17
23.36
-11.98
-55.67
-87.28
-91.82
-68.42
-30.73
1.16
12.23
0.78
-21.41
-37.16
-34.75
-15.04
9.01
21.13
12.09
-14.03
-41.92
-54.41
-42.95
-13.49
16.72
28.78
13.13
-24.8
-66.9
-92.65
-89.93
-61
-20.49
13.82
30.87
32.01
28.54
33.74
53.76
82.95
106.82
110.53
87.91
45.99
1.93
-26.11
-28.53
-9.5
15.47
28.4
18.95
-9.7
-42.45
-60.96
-54.23
-25.02
12
39.12
45.84
34.49
17.98
10.77
19.47
38.36
52.95
49.48
23.85
-14.87
-49.2
-63.33
-52.3
-25.23
0.13
7.43
-8.91
-40.63
-70.3
-81.38
-67.34
-35.17
-0.83
20.32
22.5
12.29
3.57
8.22
27.85
52.35
65.97
57.34
27.12
-11.25
-38.92
-42.54
-21.99
9.13
31.65
31.77
8.88
-24.36
-49.46
-52.95
-33.97
-4.57
17.41
18.94
-0.81
-29.97
-51.03
-50.99
-29.12
2.55
26.05
27.71
6.1
-26.66
-52.12
-55.82
-35.52
-2.29
26.61
38.07
30.52
14.56
5.52
13.5
36.67
61.47
70.83
54.44
15.65
-29.78
-61.84
-67.24
-46.85
-14.69
9.9
13.49
-4.15
-30.4
-47.8
-44.54
-21.61
8.6
30.65
35.93
27.99
19.83
24.53
45.9
74.73
93.46
86.77
51.33
-1.16
-48.9
-71.58
-60.92
-24.66
17.95
47.04
52.51
38.71
20.1
11.87
20.3
38.87
52.86
48.96
23.98
-12.12
-41.83
-50.57
-35.36
-7.37
14.59
14.76
-10.4
-50.02
-84.56
-96.82
-81.19
-46.41
-10.21
11.29
12.58
1.26
-7.78
-2.2
19.38
45.89
60.53
51.09
18.04
-24.63
-56.92
-64.09
-44.97
-12.72
13.01
17.47
-1.19
-31.21
-54.59
-57.82
-39.45
-10.75
11.62
15.74
1.79
-18.11
-27.38
-15.26
16.05
52.04
74.07
70.21
42.44
6.08
-18.98
-19.43
3.73
36.01
58.32
58.26
37.2
8.73
-10.42
-11.05
2.68
15.98
13.45
-10.78
-48.28
-80.45
-89.2
-67.65
-24.87
18.63
41.8
34.32
2.1
-36.18
-59.41
-55.16
-25.85
13.68
45.34
57.98
53.12
42.38
38.96
48.42
64.56
73.19
61.65
27.64
-17.69
-55.11
-68.05
-51.93
-17.26
16.1
29.87
17.3
-13.32
-43.55
-55.47
-41.56
-8.78
26.23
47.02
46.65
31.43
16.19
14.9
31.74
57.96
76.94
74.13
45.95
2.82
-36.35
-54.48
-45.77
-18.67
9.12
20.69
9.35
-18.07
-45.55
-57.55
-48.05
-24.01
-0.62
8.25
-1.44
-21.38
-36.54
-34.79
-14.85
12.2
29.58
25.06
-1.16
-35.82
-59.94
-59.77
-34.98
1.08
29.25
35.5
18.59
-9.66
-32.2
-36.95
-23.68
-3.96
6.64
-1.69
-26.4
-53.71
-66.55
-54.83
-22.01
16.28
40.79
39.33
13.68
-21.25
-45.95
-47.03
-24.67
8
33.25
39.36
27.57
10.63
4.38
17.22
44.24
69.59
76.15
56.08
16.34
-24.39
-46.02
-38.04
-5.5
34.19
61.32
64.83
47.83
24.6
10.92
14.1
28.39
38.7
30.52
-0.51
-44.59
-82.69
-96.96
-80.87
-43.46
-4.18
17.72
13.9
-8.8
-32.85
-40.6
-24.62
7.97
40.15
55.52
48.15
26.2
6.57
4.13
22.29
50.17
69.01
63.36
30.69
-16.29
-56.16
-70.61
-54.1
-16.51
23.17
47.9
51.59
41.46
31.9
34.53
50.16
67.7
70.85
48.44
2.06
-53.09
-95.9
-110.23
-93.12
-56.01
-17.8
5.48
8.81
-0.18
-7.22
-0.66
20.77
46.9
62.13
55.04
25.65
-13.4
-43.79
-51.47
-34.44
-4.24
20.88
25.98
7.97
-22.86
-48.89
-55.5
-39.95
-12.56
9.58
13.13
-3.55
-29.23
-47.33
-46.28
-26.84
-2.22
10.33
0.14
-29.66
-63.12
-80.3
-68.73
-31.02
16.58
53.2
64.83
51.43
26.09
6.01
2.1
12.58
24.5
22.73
-0.1
-37.77
-73.36
-88.57
-74.44
-37.14
5.5
33.74
36.89
18.68
-5.62
-19.04
-13.03
7.68
28.3
33.87
18.67
-9.43
-33.64
-38.25
-18.26
16.79
48.17
58.58
42.24
8.39
-23.73
-35.95
-21.32
12.11
46.37
64.42
60
40.95
23.53
22.05
39.62
65.59
81.93
73.97
39.46
-9.14
-51.04
-68.23
-54.84
-19.9
18.37
42.99
46.97
36.27
24.45
23.53
35.89
52.36
57.95
41.36
2.74
-44.9
-82.2
-93.65
-75.87
-39.26
-1.91
20.33
21.85
9.39
-3.42
-4.9
7.1
23.86
31.3
19.11
-12.21
-50.3
-77.51
-80.61
-58.11
-21.62
11.02
25.4
18.47
-0.26
-14.93
-13.07
6.42
32.62
49.04
43.78
16.79
-19.31
-46.85
-53.12
-37.68
-12.78
4.26
1.22
-21.52
-50.96
-68.94
-62.93
-33.83
4.42
32.68
37.54
18.63
-11.39
-35.23
-41.1
-29.62
-13.06
-7.3
-21.77
-53.02
-86.04
-102.6
-91.75
-56.07
-10.03
28.61
48.66
50.92
46.4
47.98
61.75
82.6
97.36
93.21
66.3
25.47
-11.79
-28.66
-18.29
12.54
47.45
69.85
71.82
57.77
40.79
33.95
42.14
58.46
68.45
58.83
25.98
-21
-64.21
-86.47
-80.29
-51.69
-16.46
8.74
15.12
6.02
-6.49
-9.55
2.11
22.33
37.43
34.79
11.05
-24.77
-55.73
-66.44
-51.69
-19.66
12.87
29.9
24.88
3.94
-18.59
-29.04
-22.69
-6.56
5.25
0.85
-21.8
-52.63
-75
-75.37
-51.46
-14.24
18.23
30.83
19.79
-5.28
-27.57
-33.12
-19.19
4.31
21.26
19.68
-0.69
-27.72
-44.27
-38.59
-11.85
21.96
44.07
41.83
16.29
-18.12
-41.97
-42.11
-19.23
12.83
35.88
38.28
21.61
-0.81
-12.9
-5.9
15.75
36.99
41.24
20.65
-18.62
-59.04
-81.29
-74.78
-43.23
-2.09
30.78
45.06
42.99
36.59
38.78
54.73
77.65
92.9
86.89
56.14
10.37
-31.62
-51.99
-43.38
-12.52
23.65
47.92
51.95
40.12
25.85
22.6
35.16
56.12
70.21
63.48
32.12
-14.31
-57.17
-78.47
-70.31
-38.9
-0.74
26.75
34.23
24.76
10.56
4.48
11.47
24.96
30.98
17.09
-18.79
-65.7
-104.56
-118.41
-101.54
-62.56
-19.32
11.18
21.49
16.88
10.41
13.92
29.98
49.53
57.45
41.93
2.6
-47.75
-88.75
-103.04
-85.25
-44.77
-0.3
30.7
40.91
36.16
29.87
33.6
48.88
66.09
71.03
54.58
19.67
-18.92
-42.72
-40
-12.57
24.85
53.21
59.47
43.24
16.43
-4.48
-8.16
5
22.92
29.05
12.16
-26.55
-73.45
-109.26
-119.34
-101.74
-67.85
-35.86
-20.46
-24.78
-39.47
-49.47
-43.64
-22.26
3.36
18.65
15.42
-2.2
-19.63
-21.25
-0.38
35.74
69.23
81.91
65.72
27.52
-14.18
-39.54
-38.05
-13.82
17.15
36.6
34.17
12.96
-13.28
-28.75
-25.25
-7.21
11.23
14.86
-3.08
-35.98
-67.04
-78.52
-61.66
-21.89
24.42
59.59
74.1
71.38
64.17
65.42
79.3
97.91
106.1
91.39
52.71
2.63
-38.71
-54.7
-41.46
-10.06
20.04
32.01
20.75
-4.83
-27.88
-33.95
-19.64
5.38
24.24
23.02
-0.67
-36.1
-65.07
-72.63
-55.49
-24.29
2.82
10.56
-4.64
-32.34
-54.51
-56
-33.53
2.44
34.16
47.43
39.84
22.06
10.73
17.89
43.46
74.66
93.86
88.81
60.08
21
-10.02
-19.95
-8.45
12.23
24.79
17.44
-9.02
-41.45
-62.29
-60.01
-36.24
-5.37
14.11
10.07
-15.84
-49.1
-70.74
-68.52
-44.35
-13.03
6.01
0.18
-29.13
-67.14
-94.28
-96.92
-74.87
-40.95
-13.07
-3.98
-13.98
-31.59
-41.25
-33.28
-10.3
14.38
25.29
15.02
-10.65
-35.13
-41.16
-21.17
17.76
57.34
78.88
73.79
48.5
20.29
7.21
17.45
44.74
72.4
82.98
68.39
34.61
-1.81
-23.08
-19.66
4.54
35.32
56.52
59.04
45.54
27.72
18.08
21.58
31.82
34.85
18.2
-20.23
-69.38
-109.32
-122.02
-101.19
-56.05
-6.64
27.23
36.09
25.02
8.98
3.05
12.89
31.52
44.34
38.58
11.81
-25.56
-55.92
-64.15
-45.89
-10.01
27
50.42
54.94
46.86
38.83
41.06
54.27
68.29
68.14
43.32
-4.38
-60.36
-103.41
-116.83
-97.37
-56.85
-15.91
7.39
6.68
-10.07
-26.79
-29.49
-15
7.09
20.84
14.07
-13.41
-48.76
-73.14
-72.34
-44.89
-2.77
36.01
57.83
60.75
54.65
53.52
65.77
88.19
107.14
107.2
80.93
34.88
-13.07
-42.65
-42.24
-15.21
21.78
47.89
49.19
25.52
-10.26
-40.55
-53.23
-48.54
-38.04
-36.83
-53.66
-84.59
-114.7
-126.49
-110.11
-69.77
-21.59
15.34
29.53
23.15
10.1
6.6
20.98
48.08
71.97
75.7
51.87
7.89
-37.14
-62.87
-58.84
-29.92
6.58
31.25
33.29
15.88
-6.73
-18.61
-11.85
8.76
29.21
35.15
21.05
-5.63
-28.71
-32.6
-11.66
25.85
62.46
81.57
76.78
55.64
34.85
29.75
44.97
71.08
90.08
86.18
55.41
8.43
-35.08
-57.41
-52.74
-29.9
-7.05
-0.89
-17.1
-47.15
-73.78
-81.14
-63.9
-30.51
2.33
19.09
14.22
-4.9
-23.16
-27.16
-13.64
8.33
22.66
16.39
-12.04
-51.03
-81.8
-89.06
-69.46
-33.65
0
15.82
9.45
-9.97
-26.04
-25.22
-5.46
22.26
40.4
35.41
6.18
-34.26
-65.7
-71.73
-48.76
-8.09
31.06
52.41
51.44
37.07
24.84
26.44
41.86
59.36
63.06
43.48
4.66
-36.99
-61.3
-55.59
-21.91
23.98
61.65
77.08
69.59
51.11
37.47
38.24
50.71
61.7
56.51
28.83
-13.91
-53.71
-71.63
-58.57
-20.87
22.88
52.01
54.77
34.07
4.91
-15.58
-18.31
-7.59
2.03
-4.59
-33.13
-75.03
-111.47
-123.5
-102.9
-57.15
-5.84
29.91
38.44
23.01
-1.19
-16.77
-14.19
3
21.12
25.29
9.05
-21.06
-49.04
-58.82
-43.97
-11.88
20.4
36.22
28.9
5.6
-17.11
-23.47
-7.85
21.52
47.7
55.04
38.69
7.85
-19.69
-27.86
-11.86
19.13
47.53
57.96
46.25
21.95
2.39
1.8
22.57
53.03
74.37
71.5
42.04
-1.84
-40.32
-56.95
-47.76
-23.17
-1.59
1.52
-17.44
-48.16
-72.67
-75.79
-53.75
-16.42
19.02
37.64
34.93
18.78
3.66
1.31
13.32
29.68
34.83
17.41
-22.12
-70.14
-106.11
-113.16
-86.94
-38.01
14.13
51.47
66.66
65.69
62.02
66.94
81.56
95.78
95.45
72.17
30.18
-14.36
-41.86
-40.28
-12.2
26
53.1
54.54
29.76
-8.07
-40.28
-53.38
-46.29
-30.16
-20.9
-29.26
-53.81
-81.71
-96.37
-87.42
-57.35
-20.4
5.73
10.01
-5.6
-27.38
-38.47
-28.96
-1.94
28.08
43.95
36.21
9.22
-21.32
-37.21
-28.43
1.02
35.88
58.75
60.38
44.93
27.09
22.39
37.51
65.64
90.34
95.41
74.54
35.45
-4.07
-26.2
-23.05
-1.03
22.67
29.77
11.15
-28.14
-71.77
-101.14
-105.33
-86.82
-59.1
-38.58
-35.09
-46.21
-59.57
-61.16
-44.44
-15.19
11.59
21.16
8.07
-19.64
-44.68
-50.64
-31.43
4.86
40.52
58.62
52.63
30.08
7.63
0.88
14.75
40.41
60.55
59.78
34.09
-6.05
-41.23
-53.85
-37.83
-2.27
34.15
53.8
49.8
29.37
8.59
1.92
13.15
32.98
44.88
35.54
3.85
-37.42
-67.91
-71
-43.16
3.81
49.44
75.91
77.33
62.04
45.93
42.23
53.22
68.92
73.87
57.03
19.33
-26
-60.35
-70.16
-54.41
-25.33
-1.59
2.22
-16.59
-47.4
-72.56
-77.42
-58.52
-25.64
4.32
17.12
9.7
-8.31
-20.97
-16.14
6.54
35.01
52.05
45.95
18.14
-16.82
-39.18
-35.36
-5.82
34.79
65.93
72.65
53.57
21.19
-6.11
-14.89
-4.32
13.94
23.22
12.2
-17.82
-53.22
-75.6
-72.25
-43.37
-2.37
31.91
45.42
36.29
15.16
-2
-3.82
9.68
27.01
32.8
17.58
-15.55
-52.03
-73.98
-70.58
-44.63
-11.17
11.16
10.78
-10.13
-36.92
-51.16
-41.4
-10.09
27.66
52.92
53.72
31.64
0.59
-22.09
-25.88
-12.98
3.34
7.31
-9.44
-42.2
-75.19
-90.19
-76.81
-38.56
8.56
44.77
56.94
45.14
21.76
3.34
0.67
12.42
26.37
27.59
8.26
-26.59
-61.46
-79.29
-71.53
-43.59
-11.82
6.02
1.08
-21.46
-45.11
-51.88
-32.76
6.76
49.54
76.69
77.85
56.6
27.61
7.35
4.28
14.28
23.74
18.41
-7.35
-46.23
-81.35
-95.46
-80.45
-42.25
2.43
35.22
46.05
38.07
25.07
22.28
36.85
63.11
85.84
89.85
69.52
32.65
-3.6
-22.68
-18.13
2.61
22.68
25.57
4.8
-32.18
-67.63
-83.39
-70.77
-35.31
6.6
37.18
46.96
39.4
27.65
25.48
38.35
59.59
74.56
69.87
42.3
1.69
-33.81
-47.64
-33.88
-0.76
33.92
52.69
47.75
25.02
0.36
-10.06
1
27.4
53.77
64.89
54.77
30
5.6
-4.75
2.77
19.51
29.28
18.44
-15.57
-61.44
-99.46
-111.71
-91.77
-48.56
-1.88
27.73
29.52
7.77
-21.44
-39.76
-36.61
-14.95
11.7
28.1
26.5
11.07
-5.48
-10.75
-1.04
15.49
23.63
10.58
-25.49
-72.91
-111.7
-124.28
-104.83
-62.71
-17.16
13.29
20.69
11.12
-0.1
1.41
19.9
46.9
66.67
66.32
43.93
10.43
-16.57
-22.88
-5.78
24.1
48.77
52.69
31.35
-6.14
-41.7
-57.81
-46.45
-13.28
26.26
55.8
67.01
63.39
56.71
58.23
70.67
85.56
88.52
68.54
26.02
-25.93
-67.78
-84.14
-72.1
-43.04
-16.39
-8.86
-25.41
-56.64
-84.03
-90.27
-68.95
-27.96
15
42.56
47.19
34.54
18.7
12.73
20.34
33.6
38.77
25.55
-5.55
-42.14
-66.9
-67.32
-43.07
-7.06
21.74
28.61
11.17
-19.23
-43.7
-46.54
-23.95
13.81
48.26
63.39
54.45
30
6.24
-3.14
4.77
20.66
28.99
17.77
-13.68
-53.15
-82.2
-86.03
-61.74
-20.56
18.54
39.08
35.92
17.93
2.25
3.53
25.09
56.3
79
78.46
52.25
11.93
-23.64
-39.31
-32.25
-13.25
0.1
-6.07
-33.46
-70.13
-97
-98.34
-70.51
-24.51
20.14
45.9
46.44
29.54
11.77
8.01
22.46
46.15
62.77
59.3
34.33
-0.82
-28.9
-37.24
-25.29
-4.99
6.75
-1.72
-29.61
-63.62
-85.25
-81.25
-51.16
-8.16
27.85
40.93
27.36
-2.43
-30.12
-39.94
-27.2
-0.64
23.44
31.21
19.76
-1.66
-17.72
-17.01
0.49
23.04
34.44
23.9
-6.68
-42.84
-65.17
-59.92
-26.78
20.5
61.57
80.33
73.14
50.04
28
20.58
30.35
48.04
59.18
53.6
32.12
6.12
-9.49
-5.74
14.38
36.8
44.31
26.27
-14.94
-63.87
-99.66
-106.31
-80.66
-34.43
12.02
40.22
42.86
27.08
9.51
5.9
21.49
48.27
70.03
72.76
53.24
21.08
-7.51
-19.7
-13.88
-0.79
3.46
-12.72
-48.84
-91.54
-121.56
-124.03
-96.57
-51.19
-7.99
15.34
12.59
-8.03
-29.13
-34.47
-18.38
11.24
38.22
48.58
39.03
18.86
3.48
4.21
20.78
41.06
48.83
34.06
-0.13
-38.01
-59.77
-52.31
-16.71
31.62
71.13
85.31
70.96
39.63
10.55
-0.06
12.42
39.13
63.78
72.48
61.68
39.24
18.59
9.62
12.14
15.92
7.64
-20.17
-63.32
-106.65
-132.12
-128.48
-97.77
-55.06
-20.38
-8.3
-20.08
-43.05
-57.95
-49.83
-16.85
28.74
67.58
84.63
77.34
56.65
39.2
36.84
49.38
64.81
67.47
48.07
10.23
-30.74
-56.25
-54.8
-28.72
6.69
31.44
31.6
6.62
-29.97
-58.35
-63.11
-41.29
-3.78
31.61
50.31
48.86
35.62
24.26
24.43
35.09
45.23
41.11
15.41
-27.16
-70.82
-97.2
-95.03
-66.41
-26.47
4.81
12.96
-3.3
-31.53
-52.61
-51.69
-26.75
10.41
41.18
51.17
38.36
13.91
-5.55
-8.49
4.42
20.76
24.82
7.61
-26.7
-62.47
-81.27
-72.47
-39.66
0.9
28.81
30.52
6.24
-30.21
-59.39
-66.77
-50.2
-20.51
5.49
14.97
6.54
-9.63
-18.48
-9.93
14.31
41.17
53.89
41.91
7.88
-32.45
-58.34
-54.67
-20.19
31.31
78.43
103.24
100.29
78.72
55.85
46.62
55
72.6
84.82
80.48
58.93
30.25
8.42
2.36
9.96
18.97
14.54
-11.63
-55.52
-101.49
-130.25
-128.62
-96.55
-47.91
-3.31
20.38
18.62
1.11
-14.17
-11.72
12.17
47.38
76.02
83.38
66.43
35.44
7.07
-5.92
-2.22
7.56
8.49
-8.88
-41.96
-76.76
-96.12
-89.76
-60.71
-24.56
-0.91
-2.87
-29.77
-66.83
-92.96
-91.91
-60.99
-12.56
32.7
57.18
55.63
37.09
18.58
14.32
27.35
48.45
62.86
60.13
41.07
17.32
3.7
8.69
28.62
49.09
53.6
33.32
-7.23
-51.41
-79.17
-77.36
-46.71
-2.1
35.14
47.9
32.22
-0.94
-31.75
-42.43
-26.97
6.39
40.56
60.32
60.87
49.97
41.65
46.26
63.07
80.16
82.26
60.55
19.02
-27
-59.52
-67.9
-54.7
-34.14
-23.6
-33.69
-62.33
-95.21
-113.97
-106.01
-71.69
-24.75
14.98
32.09
23.9
1.71
-15.7
-13.22
11.71
47.55
75.33
80.27
60.16
26.41
-3.4
-16.12
-10.75
1.67
6.01
-7.09
-34.86
-63.53
-76.91
-66.2
-35.79
-1.74
17.3
10.26
-19.86
-56.83
-79.67
-73.67
-38.37
11.98
55.76
75.58
67.19
40.81
14.69
4.11
12.88
32.3
47.58
47.7
32.57
12.74
1.91
7.75
26.41
44.29
46.66
26.84
-9.12
-44.84
-62.65
-53.35
-21.5
16.15
39.47
35.29
4.52
-38.14
-71.58
-79.16
-57.36
-16.97
23.05
46.26
47.49
34.69
22.8
24.03
40.06
61.32
73.83
68.23
45.97
18.6
0.26
-1.2
10.74
22.92
20.66
-3.21
-43.47
-84.3
-107.5
-102.1
-70.43
-27.32
7.43
19.19
6.09
-20.15
-40.86
-40.74
-16.26
22.53
58.26
76.27
72.52
55.11
38.28
33.1
40.64
51.91
54.35
40.45
13.05
-16.19
-34.19
-34.61
-21.91
-8.76
-8.15
-25.58
-55.45
-83.57
-95.37
-83.84
-54.01
-21.03
-2.15
-7.68
-35.17
-69.96
-92.53
-88.81
-57.65
-11.79
28.83
48.09
42.39
22.02
4.72
4.78
24.47
53.35
75.38
79.12
64.88
44.26
32.02
36.51
54.24
71.86
75.07
57.57
25.17
-7.33
-25.02
-21.67
-3.27
15.31
19.04
1.48
-31.31
-63.98
-80.23
-71.85
-43.55
-10.22
11.15
10.96
-7.77
-31.42
-43.9
-35.83
-9.9
20.96
41.63
43.42
28.5
8.03
-5.21
-4.44
7.8
21.84
27.41
19.79
2.27
-16.52
-28.06
-28.9
-22.28
-15.5
-15.42
-24.45
-39.16
-52.62
-58.34
-53.82
-41.98
-29.52
-23.29
-26.4
-36.26
-45.63
-46.33
-33.93
-10.68
14.95
32.55
35.57
25.35
10.88
4.03
12.7
35.95
64.19
84.67
88.68
76.55
57.21
42.58
40.41
50.04
63.46
70.88
66.81
53.06
36.81
25.39
21.48
21.52
18.59
7.4
-11.76
-32.44
-45.65
-45.33
-32.42
-15.06
-4.82
-10.41
-32.66
-63.31
-88.27
-94.7
-77.56
-42.99
-6.34
15.13
10.85
-17.27
-55.04
-82.88
-85.72
-61.02
-20.1
18.37
38.74
37.13
23.04
12.68
18.61
41.66
70.69
89.96
89.18
69.81
44.02
26.61
25.68
37.96
51.21
52.39
35.91
6.87
-22.19
-38.98
-38.61
-26.1
-13.23
-11.22
-24.31
-47.06
-67.31
-73.27
-60.17
-33.67
-7.52
3.85
-6.86
-35.31
-66.77
-83.84
-75.65
-44.1
-3.67
26.2
31.67
12.28
-18.51
-40.76
-39.29
-12.46
27.14
60.12
71.85
61.11
40.34
27.7
35.41
61.8
91.86
106.4
93.59
56.07
9.58
-26.61
-40.52
-33.6
-18.79
-11.49
-19.97
-40.85
-61.55
-68.92
-57.67
-33.82
-11.23
-3.01
-13.73
-36.52
-56.76
-60.79
-43.67
-12.48
17.11
29.41
17.27
-13.53
-46.92
-64.95
-57.31
-26.96
11.07
37.89
41.03
21.63
-5.88
-21.79
-12.25
22.22
66.44
98.92
104.1
81.22
45.02
17.12
13.54
35.66
69.65
95.24
97.63
75.71
42.05
14.35
4.62
12.45
25.91
30.02
16.36
-11.6
-40.64
-56.01
-50.43
-28.42
-3.6
9.7
4.75
-13.77
-32.95
-40.09
-30.44
-10.36
6.25
6.54
-13.5
-46.22
-75.98
-87.86
-75.93
-46.81
-16.69
-2.8
-14.21
-46.59
-83.9
-106.35
-100.81
-68.04
-22.68
14.41
27.42
14.39
-11.7
-30.53
-26.1
3.74
46.14
81.16
93.53
81.45
57.16
38.61
38.25
55.42
76.96
86.06
73.05
41.51
6.4
-15.12
-13.99
5.62
29.31
41.76
35.93
16.95
-1.73
-7.39
3.75
23.93
38.3
34.15
8.57
-29.45
-63.27
-77.88
-67.89
-40.52
-12.35
-0.63
-14.33
-48.87
-87.95
-111.5
-105.98
-71.84
-23.51
18.09
36.86
30.11
9.67
-5.54
-0.9
25.27
61.04
88.82
96.05
82.68
60.35
44.3
43.48
54.97
66.13
63.4
41.35
6.48
-26.28
-42.99
-39.32
-23.42
-11.18
-16.36
-42.16
-78.76
-108.41
-115.56
-95.71
-58.35
-22.36
-5.88
-16.69
-47.86
-81.08
-96.16
-81.56
-40.59
10.06
49.05
61.59
47.11
19.3
-2.08
-2.47
19.38
51.39
76.22
82.06
69.39
49.92
38.11
41.66
56.37
69.1
66.64
44.49
9.93
-22.12
-38.43
-35.34
-20.86
-9.45
-12.87
-32.98
-60.33
-79.99
-80.49
-60.84
-31.6
-9.02
-5.74
-23.61
-52.64
-76.04
-79.74
-59.98
-25.61
6.01
18.06
3.11
-32.36
-70.69
-91.76
-83.24
-47.4
0.06
38.46
53.57
45.31
27.59
19.58
33.95
68.84
108.91
134.7
134.37
110.89
79.93
59.89
60.75
78.24
96.79
99.76
79.74
42.95
5.51
-16.59
-16.72
-1.2
15.03
17.87
2.41
-24.38
-48.44
-57.4
-48.29
-29.38
-14.82
-15.9
-33.9
-59.2
-77.02
-76.42
-57.16
-30.2
-11.47
-12.49
-33.52
-63.04
-83.97
-83.59
-60.72
-26.92
-0.69
2.65
-20.58
-59.88
-95.41
-108.3
-90.35
-48.74
-2.4
27.91
30.81
10.59
-15.4
-26.6
-11.07
27.15
70.77
99.45
102.02
83.18
60.52
53.41
70.91
105.9
139.18
151.21
133.71
94.38
52.1
25.32
21.73
34.7
48.35
48.03
29.19
-0.47
-26.24
-35.83
-26.81
-7.89
6.79
6.46
-9.84
-32.78
-48.87
-48.81
-33.37
-13.17
-2.15
-9.2
-32.57
-60.82
-79.26
-78.57
-60.18
-35.5
-19.56
-22.46
-43.77
-72.4
-92.62
-92.58
-70.74
-37.1
-7.93
2.83
-8.59
-33.52
-55.26
-58.42
-37.75
-1.59
32.68
48.6
40.3
16.45
-4.7
-5.82
19.04
60.21
97.62
112.1
96.54
60.32
24.27
8.66
21.73
54.9
87.93
101.06
86.37
52.29
18.11
2.25
11.33
36.37
58.85
62.3
42.43
9.59
-17.72
-24.37
-7.86
20.29
41.51
41.48
18.33
-16.48
-45.49
-55.7
-45.69
-25.9
-11.42
-12.55
-28.52
-48.53
-58.55
-50.27
-26.51
0.44
15.93
11.55
-10.03
-36.53
-53.6
-52.95
-36.97
-17.3
-7.53
-15.36
-37.74
-62.56
-75.38
-67.73
-42.31
-11.83
7.62
5.37
-17.89
-49.99
-73.88
-76.7
-56.95
-25.58
0.24
6.65
-8.71
-35.3
-55.61
-55.53
-32.91
0.71
26.63
29.76
7.55
-27.54
-55.05
-57.64
-30.92
13.41
54.27
72.69
62.43
33.49
6
-1.6
16.59
50.28
79.22
85.13
62.68
23.18
-11.99
-23.59
-5.6
31.12
65.73
79.65
67.51
39.92
16.67
14.38
36.2
69.71
94.38
93.92
65.96
23.61
-12.5
-26.31
-15.42
7.94
25.14
22.68
0.48
-28.44
-46.05
-40.64
-14.01
19.35
40.91
38.95
15.26
-16.2
-37.88
-38.92
-21.38
1.43
13.51
6.02
-17.04
-41.46
-51.17
-38.25
-7.88
24.49
42.02
36.21
11.65
-17.08
-34.27
-32.08
-14.89
3.96
10.67
-0.39
-23.29
-44.03
-48.96
-32.98
-2.58
27.84
44.34
41.14
23.68
4.7
-3.55
3.55
20.23
34.15
34.09
16.88
-10.48
-34.68
-44.15
-35.81
-16.86
-0.61
1.62
-12.94
-36.64
-55.9
-59.07
-43.18
-16.1
7.86
15.87
3.99
-20.79
-44.22
-53.1
-42.81
-19.8
1.76
8.31
-5.49
-33.16
-59.79
-70.1
-57.08
-26.42
5.95
22.33
12.89
-19.01
-57.78
-84.18
-85.3
-61.58
-26.72
0.25
5.59
-11.02
-35.98
-49.8
-38.46
-2.17
44.07
79.13
87.87
70.35
42.15
25.36
35.53
72.05
117.78
148.59
147.08
112.58
61.62
18.41
1.26
12.67
38.99
59.73
60.26
40.33
13.75
-1.31
6.05
32.51
62.61
78.71
71.78
46.67
18.73
3.96
9.08
27.77
44.66
45.04
23.7
-11.85
-46.12
-64.7
-62.29
-45.41
-27.75
-21.86
-31.69
-50.66
-65.87
-66.41
-49.98
-24.66
-4.22
0.26
-13.09
-35.71
-53.54
-55.43
-39.55
-14.49
5.74
10.08
-2.96
-24.28
-39.29
-36.69
-15.43
14.18
36.01
37.33
16.11
-17.22
-45.4
-53.7
-37.9
-6.9
22.52
35.02
25.42
1.39
-20.98
-26.8
-11.16
17.87
43.69
50.97
34.42
2.3
-28.22
-40.82
-29.3
-1.57
24.92
32.99
15.64
-19.75
-55.42
-73.2
-64.47
-34.9
-0.9
20.02
19.12
1.38
-17.99
-23.06
-7
23.23
50.84
59.25
41.78
6.17
-29.57
-47.34
-38.94
-10.88
19.41
33.37
21.89
-9.6
-44.25
-63.53
-57.61
-30.98
0.79
20.31
18.54
0.09
-19.92
-25.42
-9.23
21.85
50.8
60.34
43
5.86
-33
-54.67
-49.67
-23.21
7.9
24.9
17.58
-9.89
-41.56
-58.97
-51.63
-23.19
11.28
34.1
35.32
18.58
-1.64
-9.18
3.76
31.33
57.18
64.38
45.55
7.91
-30.13
-49.37
-40.44
-9.29
25.7
44.02
34.2
0.25
-40.51
-67.14
-66.53
-40.76
-5.37
19.5
20.65
-0.47
-29.08
-45.82
-38.11
-7.88
29.99
56.57
60.11
43.07
20.01
8.13
16.44
39.88
62.42
67.28
47.52
10.88
-24.24
-39.73
-28.29
2.05
32.25
43.39
27.24
-8.91
-46.32
-65.47
-56.75
-25.95
9.05
28.34
20.8
-9.42
-45.46
-67.16
-62.28
-33.7
2.43
25.83
23.69
-1.6
-33.95
-52.78
-44.92
-12.7
27.58
55.07
56.48
34.07
3.86
-14.03
-7.44
20.48
53.48
72.3
66.24
39.83
9.68
-5.81
2.23
27.63
53.13
61.03
44.08
10.14
-22.5
-36.1
-24.01
5.18
32.92
41.7
25.29
-7.42
-37.83
-48.59
-33.59
-1.88
27.62
36.91
18.92
-18.02
-54.96
-72.78
-62.53
-30.73
4.57
23.75
16.4
-12.59
-46.26
-65.17
-58.48
-30.48
2.34
20.94
14.96
-10.79
-39.52
-52.52
-40.52
-9.63
22.48
37.27
26.63
-1.79
-29.18
-36.9
-17.75
19.33
54.31
67.79
52.11
16.03
-20.41
-37.29
-25.81
6.69
41.37
58.58
48.81
18.07
-16.21
-35.29
-29.83
-5.34
22
35.15
26.72
3.68
-17.19
-19.77
1.09
35.55
64.33
70.08
47.66
7.82
-28.81
-43.22
-28.52
6.24
41.44
57.99
47.84
18.34
-12.64
-27.17
-17.54
9.21
36.18
46.84
35.1
9.44
-12.56
-14.95
6.58
41.11
68.87
72.74
48.45
7.68
-28.58
-41.83
-26.36
7.42
39.08
49.65
32.16
-4.49
-41.08
-59.09
-51.1
-25
1.53
11.63
-0.49
-25.68
-45.74
-44.51
-18.02
22.07
55.22
63.79
43.51
6.29
-26.73
-37.36
-20.84
11.61
39.78
46.37
27.15
-6.65
-35.71
-44.2
-29.18
-2.4
17.49
16.21
-7.37
-40.05
-62.37
-60.11
-32.94
4.73
32.03
33.39
7.57
-31.64
-63.45
-71.79
-54.45
-23.78
1.2
6.19
-9.84
-34.45
-50.11
-45.18
-21.38
7.33
23.76
18.11
-5.98
-33.32
-46.62
-36.95
-8.92
21.57
36.92
27.75
-1.98
-37.61
-62.34
-66.57
-52.79
-33.17
-21.69
-25.76
-41.86
-58.12
-61.99
-47.91
-21
6.05
20.78
18.25
3.92
-9.69
-10.66
4.96
30.53
52.06
56.22
37.96
3.65
-31.76
-52.41
-49.79
-26.78
4.01
27.46
34.08
25.17
11.55
6.76
18.96
45.47
73.85
89.08
82.28
56.38
25.07
5.22
7.35
29.43
57.44
73.27
64.85
33.26
-7.46
-37.75
-43.1
-21.83
13.77
44.4
54.17
39.27
10.05
-15.32
-21.15
-3.35
27.91
54.37
60.37
42.24
11.15
-13.51
-15.45
8.68
46.52
77.04
82.69
59.69
20.53
-13.46
-24.41
-8.16
23.19
48.79
51.1
26.16
-13.84
-47.95
-58.5
-41.32
-8.53
18.96
23.53
1.2
-35.77
-66.37
-73.17
-52.7
-17.61
11.03
16.32
-4.41
-38.11
-64.24
-67.12
-45.32
-12.16
12.81
15.74
-3.33
-30.55
-47.49
-42.37
-17.33
12.67
29.26
21.56
-7.23
-41.51
-62.52
-59.28
-34.73
-4.19
13.87
8.37
-18.15
-51.39
-73.78
-74.47
-55.46
-29.46
-12
-11.97
-26.34
-42.56
-46.67
-32.08
-3.97
23.84
37.48
31.53
12.34
-5.37
-7.77
9.87
40.16
67.57
77.69
65.51
38.19
10.62
-3.09
2.08
19.6
35.22
35.41
15.23
-18.71
-51.99
-70.07
-66.19
-45.16
-20.26
-5.92
-9.73
-28.19
-49.02
-58.46
-49.17
-24.79
2.29
18.42
17
2.53
-11.69
-11.76
8.31
42.49
75.32
90.54
80.23
49.57
13.91
-9.3
-10.51
6.94
28.65
37.4
23.06
-11.36
-51.2
-77.83
-78.81
-54.77
-18.62
11.7
23.4
15.76
-0.21
-8.97
-0.1
25.25
54.85
72.91
69.68
47.59
20.26
4.46
10.2
34.66
63.1
77.34
66.22
32.16
-10.02
-41
-48.02
-31.75
-6.05
10.04
3.06
-27.1
-67.13
-97.48
-103.1
-81.67
-44.37
-9.49
8.08
4.81
-10.1
-21.02
-15.61
7.71
38.52
60.97
63.29
45.11
18.18
-0.56
1.16
23.64
54.33
75.04
72.35
45.45
6.88
-24.3
-33.42
-18.46
8.59
28.81
27.29
1.93
-35.16
-64.39
-69.93
-48.72
-12.27
19.84
31.14
17.35
-11.18
-35.61
-39.37
-17.43
20.51
55.45
69.65
56.4
24.15
-8.46
-22.91
-11.12
19.65
51.36
65.44
53.68
23.17
-8.07
-21.76
-10.16
18.96
47.26
56.87
41.21
9.42
-19.22
-26.75
-7.39
28.59
60.9
71.14
53.67
19.28
-11.34
-19.71
-0.46
35.19
66.18
73.98
53.33
15.75
-17.51
-27.95
-10.56
22.91
51.25
56.18
32.95
-6.68
-41.96
-55.42
-43.01
-16.5
4.32
3.67
-20.89
-56.86
-84.78
-90.07
-71.43
-41.77
-19.92
-19.42
-40.74
-71.1
-92.49
-92.42
-70.82
-40.1
-17.29
-14.02
-30.12
-53.99
-69.68
-66.52
-44.93
-16.36
3.81
5.15
-12.01
-36.89
-54.74
-55.47
-39.24
-16.48
-1.48
-3.99
-23.54
-49.56
-67.22
-66.14
-46.07
-17.33
5.16
10.48
-2.14
-22.93
-37.09
-33.66
-11.82
18.21
40.99
44.79
28.43
2.07
-18.26
-20.07
-1.29
28.14
51.9
56.62
39.57
10.31
-14.45
-20.43
-3.72
26.63
53.59
61.82
46.39
15.76
-12.63
-22.29
-6.93
25.61
57.65
71.74
60.58
31.34
1.73
-10.12
3.96
37.24
71.75
88.52
78.3
46.88
11.87
-7.35
-0.44
27.9
60.84
79.09
71.85
43.14
9.13
-11.28
-7.49
16.51
44.72
58.71
48.57
19.05
-13.35
-30.19
-22.1
5.47
35.51
49.56
38.51
8.17
-24.39
-40.98
-32.84
-5.85
23.13
36.37
25.4
-3.86
-34.93
-50.51
-42.48
-16.78
10.34
21.86
9.87
-19.61
-50.26
-64.94
-55.5
-27.73
2.06
16.43
6.69
-21.9
-53.07
-68.94
-59.96
-30.68
2.84
22.1
16.45
-10.66
-43.53
-63.16
-57.77
-29.63
5.95
29.44
27.94
2.65
-31.58
-54.88
-53.46
-27.76
7.57
32.17
31.5
5.43
-31.37
-57.98
-59.1
-33.98
2.77
29.82
31.26
5.96
-31.49
-59.35
-61.17
-35.36
3.62
33.82
38.4
15.35
-21.19
-49.35
-52.07
-26.93
12.52
44.96
53.7
36.19
5.31
-18.83
-20.82
0.95
33.53
57.59
58.99
37.3
6
-15.95
-15.47
6.82
37.02
56.69
53.87
30.39
0.8
-16.59
-10.64
15.88
47.7
66.38
61
34.82
3.47
-14.39
-7.81
19.79
52.4
70.77
63.32
33.11
-3.8
-27.56
-25.76
-0.72
31.76
51.68
46.32
17.84
-18
-41.1
-38.9
-13.99
17.22
34.31
24.83
-8.08
-47.37
-71.91
-68.76
-40.62
-4.27
19.51
18
-6.22
-37.08
-54.9
-48
-19.44
15.05
36.97
36.12
16.63
-5.84
-14.2
-0.38
29.48
58.86
71.14
59.65
31.79
4.63
-5.56
7.16
35.14
61.84
72.01
60.4
34.42
9.09
-2.06
5.07
23.26
38.65
39.26
21.92
-6.09
-31.72
-43.79
-39.14
-24.32
-11.18
-9.58
-21.66
-40.38
-53.82
-52.75
-36.37
-13.61
1.64
-1.32
-23.67
-55.86
-82.17
-89.52
-74.64
-45.98
-19.8
-11.18
-26.04
-57.97
-91.28
-109.52
-104.18
-79.29
-49.37
-31.53
-35.98
-59.98
-88.85
-104.11
-93.54
-58.53
-13.67
21.52
33.27
21.62
0.56
-10.29
2.76
39.04
82.81
112.08
110.9
78.91
32.33
-4.68
-13.23
9.9
50.52
85.46
95.96
78.17
45.06
17.95
13.64
34.43
67.23
92.25
95.16
75.59
46.85
27.06
27.66
46.47
68.91
77.27
61.3
24.25
-19.22
-51.66
-62.54
-53.51
-36.42
-25.38
-28.42
-42.99
-58.34
-62.93
-51.84
-30.1
-9.55
-1.39
-9.36
-27.34
-42.78
-44.24
-28.13
-1.11
23.09
31.26
17.87
-11.64
-43.44
-62.39
-59.99
-38.74
-11.09
7.19
5.56
-15.32
-43.67
-63.14
-61.95
-40.05
-9.59
12.22
12.95
-7.43
-35.74
-53.24
-46.51
-15.7
24.42
52.72
53.44
25.53
-16.01
-48.1
-52.2
-24.51
21.85
64.32
83.69
74.56
48.13
24.81
22.01
43.77
78.48
106.36
111.63
92.09
60.5
36.62
34.93
55.93
85.25
102.51
93.27
57.46
9.33
-30.9
-48.43
-41.75
-22.47
-7.49
-8.73
-26.55
-50.31
-65.99
-64.97
-49.24
-29.77
-19.11
-23.8
-40.22
-57.05
-62.38
-50.99
-27.86
-5.65
2.35
-10.18
-38.85
-70.52
-90.17
-88.91
-68.47
-40.51
-20.16
-17.77
-32.98
-54.82
-67.91
-61.26
-35.23
-1.84
21.63
22.41
-0.29
-33.83
-58.9
-59.85
-33.47
8.56
46.08
61.2
48.24
17.1
-12.45
-21.94
-4.71
30.09
63.09
76.1
63.03
34.01
9.42
7.83
34.56
77.86
115.55
127.89
109.14
70.89
35.03
20.73
33.66
63.21
89.73
96.77
80.52
51.53
27.43
21.65
35.3
56.63
68.52
58.96
27.96
-12.53
-46.04
-60.99
-56.93
-44.07
-36.28
-42.61
-61.84
-83.55
-95.04
-89.18
-68.95
-45.77
-32.58
-36.22
-53.26
-71.78
-78.28
-65.67
-37.69
-7.65
8.52
0.99
-28.42
-66.55
-95.26
-100.84
-80.97
-46.19
-14.48
-1.75
-13.22
-40.49
-66.12
-73.21
-55.11
-19.29
17.25
37.63
35.15
17.69
2.63
6.32
33.76
74.26
107.52
115.29
92.56
51.37
14.55
2.65
22.32
62.39
100.21
114.98
99.34
63.22
27.58
11.97
23.28
52.43
80.54
90.56
77.17
49.29
23.7
14.51
24.87
45.45
60.98
59.91
41
14.03
-7.04
-12.84
-4.16
8.34
11.11
-4.06
-34.77
-69.45
-93.75
-99.13
-87.77
-71.41
-64.66
-76.52
-104.89
-137.23
-157.11
-152.95
-124.49
-83.24
-46.69
-29.29
-34.9
-54.67
-72.04
-71.87
-48.95
-11.34
24.18
41.48
34.21
9.98
-14.13
-21.32
-4.86
27.4
57.87
69.58
56.64
28.23
3.45
-0.18
22.62
60.89
93.64
102.17
81.15
42.23
7.46
-3.69
14.51
50.44
82.24
90.7
70.35
32.38
-2.14
-14.88
-0.64
29.94
57.26
64.68
48.05
17.66
-8.6
-16.24
-2.59
21.94
40.81
41.6
23.39
-3.15
-22.59
-24.32
-8.82
12.91
26.23
21.87
1.42
-23.93
-40.27
-39.33
-23.22
-3.09
7.75
1.65
-18.66
-41.7
-53.97
-47.82
-26.01
-0.52
14.19
9.15
-13.79
-42.7
-62.08
-61.43
-41.34
-13.49
5.63
3.83
-19.67
-53.43
-79.98
-85.52
-67.91
-38.03
-13.64
-9.11
-26.95
-55.67
-76.43
-73.85
-45.25
-2.94
32.76
45.05
30.52
1.65
-20.4
-18.13
11.99
56.76
93.91
104.87
85.47
48.56
16.54
8.31
28.47
64.51
94.45
99.74
75.89
34.93
-1.77
-16.07
-3.17
26
52
58.59
42.09
12.9
-11.43
-17.1
-2.27
22.31
40.3
40.03
21.4
-4.57
-22.88
-23.87
-8.97
10.54
20.82
13.98
-6.99
-30.3
-42.62
-37.11
-17.41
4.34
14.82
7.06
-15.38
-40.5
-54.68
-50.4
-30.53
-7.04
5.7
-1.09
-25.41
-55.19
-74.82
-73.87
-53.34
-25.55
-7.55
-11.54
-37.52
-72.61
-97.74
-98.16
-71.91
-31.35
3.55
16.09
2.09
-27.33
-52.12
-54.4
-28.54
15.33
57.02
77.58
69.9
43.02
16.48
8.92
27.23
62.25
94.62
106.42
92.03
61.77
35.51
30.57
51.11
85.22
112.12
114.7
89.7
49.67
15.35
3.03
15.1
38.65
53.7
45.32
12.58
-31.07
-65.68
-76.6
-62.71
-36.38
-15.84
-14.08
-31.67
-57.11
-74.4
-72.88
-53.48
-27.59
-9.62
-8.09
-20.46
-35.06
-38.83
-25.52
0.31
25.95
38.35
31.85
11.52
-9.81
-19.27
-11.48
8.55
28.16
34.59
22.24
-3.93
-31.14
-45.83
-41.32
-21.66
0.34
10.13
-0.42
-28.2
-60.08
-80.07
-78.05
-55.92
-26.9
-8.32
-12.16
-38.05
-72.83
-97.81
-98.96
-74.9
-38.12
-7.89
0.54
-15.59
-44.3
-66.07
-64.84
-37.3
4.67
40.84
54.07
40.17
10.66
-14.29
-17.41
5.55
43.01
74.78
83.77
66.24
34.37
8.8
6.64
31.26
69.94
101.58
108.99
89.02
54.66
27.05
23.07
45.28
80.35
107.31
110.1
87.02
51.94
25.47
22.55
43.32
72.97
90.92
83.26
51.11
10.17
-18.91
-22.89
-3.53
23.38
38.03
28.48
-2.35
-38.54
-61.04
-59.15
-36.58
-9.2
4.92
-3.8
-31.02
-61.42
-78.07
-72.42
-49
-22.43
-8.33
-14.15
-35.09
-57.31
-66.54
-56.54
-32.64
-8.37
2.91
-4.01
-23.04
-40.63
-44.03
-29.02
-2.44
21.8
31.08
21.52
0.48
-18.19
-22.4
-9.09
13.86
32.39
34.72
18.41
-7.92
-29.82
-35.57
-23.24
-1.94
13.47
11.32
-9.88
-40.2
-63.78
-68.06
-51.08
-22.66
0.99
6.64
-8.66
-35.79
-58.64
-63.37
-46.1
-15.3
12.79
23.14
10.14
-19.09
-48.32
-61.17
-49.94
-20.2
11.84
28.29
19.16
-11.72
-48.27
-71.04
-67.7
-40.29
-4.48
19.29
17.08
-10.35
-47.49
-72.87
-71.07
-41.7
-0.03
31.78
37.2
14.83
-20.53
-46.47
-45.73
-16.09
28.37
65.62
78.45
64.22
35.97
14.05
13.75
36.23
68
89.8
88.54
65.48
35.74
18.52
25.42
52.99
84.57
100.56
90.18
58.13
22.05
2.03
8.88
37.85
71.23
88.99
80.09
48.82
11.81
-11.88
-11.77
8.06
31.98
42.52
30.94
2.59
-26.53
-39.68
-29.5
-2.84
23.67
33.86
21.95
-4.04
-27.12
-32.25
-15.58
12.9
35.29
36.88
15.08
-18.87
-46.28
-52.05
-33.55
-1.6
25.7
33.87
20.21
-5.18
-25.99
-29.55
-14.3
9.67
27.14
27.29
10.25
-12.78
-26.59
-21.42
1.16
28.65
45.09
40.44
16.54
-14.17
-35.68
-38.04
-22.9
-2.44
7.83
-1.63
-28.66
-60.76
-82.16
-82.79
-64.14
-37.78
-18.71
-16.53
-29.9
-47.71
-56.1
-46.76
-22.07
6.21
24.08
23.6
7.51
-12.01
-20.72
-10.77
14.52
41.96
55.96
47.25
18.35
-17.81
-44.59
-51.01
-37.64
-16.03
-2.05
-6.58
-29.1
-57.88
-76.78
-74.31
-50.6
-17.23
9.44
17.37
5.81
-14.23
-27.03
-21.35
2.84
33.81
55.32
56.08
36.41
8.63
-10.09
-7.62
15.97
47.72
69.09
66.29
38.21
-2.62
-36.71
-48.22
-33.62
-3.53
23.53
31.56
16.18
-12.86
-37.83
-43.34
-25.5
5.63
32.45
40.11
25.4
-1.04
-21.3
-20.95
2.28
36.37
62.11
64.03
39.51
0.75
-32.15
-42.33
-25.51
7.4
36.84
45.65
28.59
-4.45
-34.64
-45.08
-30.6
-1.08
24.79
30.33
10.86
-22.97
-51.48
-57.12
-34.72
4.89
41.17
55.26
40.58
6.75
-26.49
-40.66
-29.06
-0.62
26.09
34.06
18.09
-11.76
-36.43
-39.3
-16.29
20.97
52.02
59.3
38.37
0.91
-32.19
-42.65
-25.07
9.78
41.58
51.94
34.84
0.18
-32.48
-45.27
-32.25
-2.94
24.01
32.01
16.55
-11.64
-33.32
-32.23
-5.11
35.48
68.52
76.51
55.75
18.73
-13.24
-22.31
-4.37
28.54
55.64
59.52
36.31
-1.9
-34.36
-43.53
-25.23
9.05
39.16
48.02
31.27
-0.25
-27.66
-35.23
-19.62
8.22
30.22
32.01
11.65
-19.07
-42.15
-44.13
-24.18
5.1
25.47
23.76
-0.26
-33.38
-56.84
-57.05
-33.54
0.51
26.09
29.12
8.5
-23.08
-46.87
-48.91
-28.29
2.09
23.25
21.2
-4.64
-40.7
-67.24
-69.73
-47.63
-14.83
8.52
7.85
-17.07
-51.64
-75.03
-72.24
-42.97
-1.9
30.26
38.83
23.72
-0.78
-15
-5.87
25.03
62.34
86.26
84.45
59.34
26.55
5.35
7.2
29.1
55.73
69.12
59.46
31.05
-0.64
-18.54
-14.27
6.8
29.07
36.51
22.28
-6.81
-34.56
-45.31
-33.28
-6.39
18.51
25.81
10.24
-19.65
-46.69
-55.33
-40.73
-11.85
14
21.45
5.9
-23.55
-49.57
-56.91
-41.19
-11.7
14.23
21.42
5.53
-24.33
-50.9
-59.07
-44.45
-16.09
9.11
16.39
1.59
-26.44
-51.01
-57.57
-41.94
-12.86
13.34
22.4
10.19
-15.06
-37.62
-43.75
-29.42
-2.72
21.04
28.59
16.18
-8.29
-29.88
-35.55
-21.51
4.44
27.63
35.27
23.75
0.66
-19.5
-23.91
-8.71
18.63
43.48
52.55
41.28
16.35
-8.04
-18.51
-9.95
11.49
31.91
37.89
24.32
-2.59
-28.59
-39.74
-30.35
-6.59
16.81
25.06
11.9
-16.67
-45.31
-58.13
-47.53
-18.76
12.58
29.38
22.37
-4.56
-36.27
-54.78
-49.09
-21.34
14.05
38.54
39.56
17.55
-14.12
-36.67
-36.38
-12.21
23.35
51.56
58.04
40.98
12.38
-9.06
-8.67
15.59
51.46
79.74
85.21
65.65
33.39
8.17
5.75
28.74
64.63
93.17
97.95
75.93
39.33
8.56
0.37
18.25
50.15
75.78
78.36
54.59
16.66
-15.03
-23.67
-5.98
25.84
51.5
54.52
32.03
-3.62
-32.45
-38.74
-20.4
9.77
32.02
31.41
6.92
-27.97
-53.51
-55.43
-33.59
-1.92
20.15
19.24
-3.84
-34.84
-55.13
-52.98
-30.81
-3.44
11.26
3.27
-23.32
-52.73
-67.35
-58.24
-30.69
-0.79
14.31
6.55
-18.44
-44.63
-55.51
-43.75
-15.54
13.31
26.84
18.22
-6.4
-31.6
-42.15
-31.98
-7.83
14.95
21.78
7.53
-20.33
-46.11
-55.27
-43.08
-17.4
5.87
12.48
-1.98
-29.58
-54.75
-63.62
-51.97
-27.54
-5.35
1.45
-10.75
-34.24
-54.59
-59.24
-44.94
-19.56
2.41
8.44
-4.77
-29.53
-51.56
-58.22
-45.84
-21.57
0.68
8.52
-1.74
-22.97
-41.5
-45.05
-30.08
-3.75
20
28.68
18.49
-3.33
-22.8
-27.28
-12.88
13.23
36.94
45.39
34.48
11.54
-9.08
-14.26
0.17
26.88
51.27
60.06
49.1
26.03
5.61
1.01
15.88
42.07
64.37
69.72
54.94
28.85
7.01
2.42
17.88
44.15
65.38
68.44
50.54
21.11
-3.64
-9.93
5.78
34.61
60.07
67.37
51.47
20.19
-9.96
-22.93
-11.78
17.26
47.87
62.6
52.23
21.02
-15.14
-37.54
-34.57
-8.28
26.37
49.97
49.3
24.82
-9.21
-33.05
-32.6
-7.75
27.03
51.14
49.6
22.01
-16.59
-44.45
-45.45
-18.67
20.52
49.42
50.89
23.37
-17.8
-49.39
-53.59
-28.31
11.32
41.95
45.51
19.81
-20.08
-50.64
-53.5
-26.02
17.39
54.07
66.31
51.46
22.51
-0.64
-3.76
13.04
35.83
46.34
33.73
1.81
-33.12
-52.65
-47.61
-23.94
0.86
8.65
-8.35
-42.84
-76.63
-91.87
-81.42
-53.07
-24.62
-13.22
-25.45
-53.9
-81.93
-93.89
-84.1
-59.87
-36.37
-27.18
-36.2
-55.51
-70.68
-69.8
-50.68
-22.26
0.75
6.84
-5.84
-28.35
-46.4
-48.62
-32.89
-7.62
13.25
18.25
4.77
-19.44
-40.45
-45.81
-31.15
-2.76
25.98
42.01
39.93
24.9
9.89
7.96
24.67
54.56
83.82
98.31
91.86
70.1
47.78
40.19
54.2
83.92
113.14
124.48
109.11
72.39
31.42
5.93
7.58
33.15
65.75
84.26
74.84
39.14
-6.5
-40.02
-46.09
-24.99
7.66
30
26.75
-1.7
-39.77
-66.14
-66.46
-41.9
-8.15
14.51
13.44
-8.96
-37.21
-53.21
-47.45
-24.95
-1.88
4.94
-11.59
-44.59
-77.25
-93.17
-85.81
-61.66
-36.13
-23.82
-30.4
-49.85
-68.99
-75.61
-65.64
-45.23
-26.27
-19.07
-26
-39.78
-47.9
-40.22
-15.19
18.6
46.79
57.77
49.24
30.06
15.9
20.16
46.46
85.76
120.35
133.24
117.25
79.24
37.1
10.5
10.59
34.17
65.44
84.92
80.35
53.93
20.79
0.22
4.08
29.23
59.09
73.38
60.08
22.92
-20.6
-49.6
-52.16
-32.29
-7.61
1.5
-16
-55.18
-98.22
-125.18
-125.28
-102.57
-72.44
-51.66
-48.35
-58.16
-67.96
-65.26
-46.44
-19.07
2.83
7.83
-6.08
-30.03
-49.8
-54.04
-40.71
-18.05
0.51
4.31
-8.27
-28.63
-42.67
-38.65
-13.94
23.2
57.75
76.22
73.81
57.44
42.12
42.48
64.62
101.78
137.2
152.9
139.51
101.83
56.83
24.61
17.47
33.12
56.15
67.17
54.29
20.37
-18.83
-44.19
-45
-25.69
-3.05
4.13
-13.38
-49.55
-86.85
-107.02
-102.03
-78.47
-53.29
-43.1
-54.36
-80.01
-104.24
-112.45
-99.72
-73.13
-46.8
-32.72
-33.52
-40.86
-40.8
-22.65
14.07
58.3
92.85
103.83
88.29
56.47
26.96
17.01
33.68
69.74
107.19
126.7
117.79
84.46
42.8
12.01
3.48
14.79
31.73
37.4
22.73
-8.12
-40.74
-59.73
-58.48
-43.5
-29.93
-31.88
-53.4
-85.58
-111.78
-117.66
-99.54
-66.57
-35.71
-21.68
-28.78
-48.31
-63.29
-58.08
-27.18
21.02
68.12
95.11
92.31
64.39
27.48
0.29
-6.07
6.44
25.25
35.7
30.41
13.95
-0.66
-0.65
17.79
46.03
67.77
68.82
46.01
9.99
-19.93
-26.57
-4.44
36.92
77.34
97.02
86.44
50.95
6.95
-27.62
-42.87
-41.17
-34.05
-33.87
-45.4
-62.46
-72.03
-62.31
-30.63
13.4
52.5
70.53
61.06
30.9
-3.9
-27.3
-31.86
-22.39
-12.38
-14.75
-33.29
-59.7
-77.58
-72.26
-39.83
9.72
56.59
81.43
75.02
42.8
1.19
-31.36
-44.08
-38.67
-26.83
-22.35
-32.23
-51.88
-68.37
-68.53
-47.44
-12.33
21.55
39.99
38.53
25.5
17.12
27.49
59.83
103.49
139.28
150.08
130.09
87.73
40.75
6.01
-9.21
-10.22
-10.27
-21.42
-46.57
-77.3
-98.73
-98.93
-76.67
-43.04
-15.66
-8.69
-24.69
-52.58
-73.69
-71.94
-42.97
3.08
46.42
67.97
58.92
25.29
-15.91
-46.02
-54.07
-42
-22.21
-9.37
-11.44
-24.87
-37.41
-36.26
-16.56
14.72
42.88
54.55
46.41
27.88
15.83
24.3
55.75
98.45
132.52
140.82
118.24
74.35
27.63
-4.96
-16.88
-14.43
-11.8
-21.39
-45.9
-76.27
-96.76
-94.47
-67.28
-25.96
11.13
27.85
18.71
-8.09
-35.5
-47.02
-35.85
-8.6
18.5
28.79
14.6
-18.06
-53.27
-74.43
-73.22
-54.08
-30.4
-15.45
-13.8
-18.35
-14.9
8.13
51.4
102.42
141.27
151.34
128.18
81.84
31.47
-4.98
-19.54
-17.36
-12.33
-18.2
-40.11
-71.14
-96.67
-102.91
-85.48
-52.48
-19.9
-2.42
-4.81
-18.96
-28.85
-20.59
8.67
48.29
79.44
86
63.73
22.97
-17.27
-39.98
-38.97
-21.56
-3.05
3.13
-6.43
-22.99
-31.22
-18.97
14.86
58.38
92.9
103.07
85
48.61
11.67
-9.95
-10.72
1.94
12.67
7.55
-17.35
-53.37
-84.09
-94.99
-81.94
-53.41
-25.54
-12.25
-17.11
-31.17
-38.47
-25.81
8.81
54.02
90.69
102.14
83.03
42.38
-1.62
-31.55
-39.22
-29.16
-14.38
-7.5
-12.68
-23.01
-25.01
-7.51
30.19
76.37
112.3
122.25
101.89
60.73
16.74
-13.38
-22.4
-15.7
-6.8
-8.73
-26.05
-52.03
-72.63
-75.17
-56.46
-25.14
2.47
11.92
-1.22
-28.06
-51.23
-54.71
-32.83
5.73
42.54
59.37
48.37
16.1
-20.48
-43.91
-45.88
-30.91
-12.82
-5.06
-12.35
-27.24
-34.95
-22.37
13.37
61.61
103.22
120.26
105.48
66.13
20.13
-13.62
-24.84
-16.68
-2.89
1.4
-11.2
-35.18
-55.75
-57.92
-36.26
0.7
34.62
47.71
33.08
-1.2
-36.2
-52.98
-43.15
-13.13
19.37
35.85
27.16
-1.5
-34.47
-54.97
-54.56
-37.69
-17.93
-9.07
-16.17
-32.23
-42.24
-32.68
-0.28
44.98
84.59
101.78
90.4
58.37
22.7
-0.16
-3.18
7.83
18.66
15.71
-5.42
-37
-63.36
-70.13
-52.94
-20.14
11.43
26.24
18.62
-3.7
-24.27
-27.41
-7.33
27.9
60.73
73.76
59.52
24.7
-13.73
-38.13
-39.89
-23.59
-3.56
5.61
-1.89
-19.27
-31.43
-24.41
5.52
48.34
85.27
98.86
82.54
43.99
0.62
-30.17
-40.08
-33.63
-24.4
-26.14
-44.18
-71.85
-94.16
-96.78
-74.82
-36.36
1.54
22.52
20.07
1.36
-17.01
-18.87
2.19
38.38
71.98
85.2
70.07
33.08
-8.69
-37.2
-43.17
-30.46
-12.84
-4.66
-11.89
-28.22
-39.02
-30.61
0.93
45.94
85.84
102.9
89.7
53.08
10.12
-21.3
-31.82
-24.99
-14.06
-13.32
-29.23
-55.97
-78.77
-82.98
-62.95
-26.35
9.61
27.97
21.33
-3.98
-31.87
-46.09
-39.45
-17.92
3.24
8.62
-8.18
-40.42
-72.09
-87.1
-78.15
-50.79
-19.91
-0.57
0.72
-10.13
-18.64
-11.01
17.06
56.65
90.13
100.98
83.27
45.55
6.22
-16.51
-14.12
8.12
34.97
50.84
48.69
34.12
21.39
24.49
48.2
84.32
115.88
126.32
108.76
69.97
26.53
-4.53
-14.94
-9.2
-1.16
-4.81
-25.4
-55.67
-79.82
-82.79
-59.42
-18.38
21.98
43.3
36.92
8.37
-26.3
-50
-53.94
-41.98
-27.49
-24.18
-37.4
-60.16
-76.88
-72.48
-41.67
7.03
54.68
81.71
77.94
47.71
7.21
-24.45
-35.17
-25.56
-7.26
4.96
2.32
-12.39
-26.9
-27.49
-7.88
25.79
57.88
72.3
61.7
31.96
-0.93
-20.29
-18.17
0.21
19.38
22.8
2.62
-35.4
-75.21
-99.27
-98.29
-75.9
-45.78
-22.93
-14.61
-16.21
-14.66
2.62
38.91
84.67
121.87
133.97
115.23
74.35
29.92
0.34
-5.72
6.84
23.27
28.47
16
-8
-28.58
-31.12
-10.23
26.23
61.03
76.94
65.92
33.54
-4.5
-31.38
-38.3
-29.07
-17.36
-18.03
-38.21
-72.53
-105.97
-122.54
-114.57
-87.27
-56.03
-37.13
-38.24
-53.66
-67.63
-63.86
-35.74
9.18
52.66
76.02
70.51
42.32
8.62
-12.44
-11.59
7.02
29.21
40.21
33.65
15.5
0.31
2.12
25.62
62.61
95.84
108.6
93.66
57.43
16.28
-12.59
-20.4
-11.42
0.13
-1.32
-23.13
-59.79
-95.73
-114.38
-107.82
-81.04
-49.13
-27.76
-23.93
-31.81
-36.31
-22.65
14.12
65.02
110.92
132.55
120.69
81.03
30.91
-9.9
-29.06
-27.11
-15.45
-8.3
-13.77
-29.01
-42.17
-40.57
-19.3
14.57
45.39
58.03
46.79
19.34
-7.41
-16.7
-1.68
30.59
62.41
75.19
59.48
19.96
-27.36
-63.95
-78.48
-71.98
-55.84
-44.06
-44.57
-54.47
-62.2
-55.26
-28.67
10.87
47.84
66.73
60.85
36.43
9.4
-3.5
5.93
32.67
61.01
73.39
60.05
24.55
-18.45
-51.43
-63.58
-56.04
-40.13
-29.56
-31.72
-43.06
-51.3
-43.51
-14.67
28.02
68.09
88.8
82.41
54.66
21.93
2.31
5.85
29.21
57.52
72.91
64.45
34.2
-4.42
-34.6
-45.66
-38.63
-24.39
-16
-19.96
-31.82
-38.96
-29.1
1.13
42.62
77.76
90.33
74.63
39.03
1.71
-19.34
-16.02
5.71
29.38
37.55
21.74
-13.11
-51.9
-78.16
-83.18
-70.11
-50.75
-37.76
-36.93
-44.15
-48.97
-42.17
-22.18
3.33
21.95
24.01
8.47
-16.46
-37.79
-44.9
-35
-14.03
6.79
17.36
13.74
-0.37
-16.45
-26.15
-25.59
-16.84
-5.8
1.7
3.45
2
2.71
9.84
23.43
38.56
47.95
46.21
33.07
13.97
-2.67
-9.79
-5.47
6.2
17.38
20.79
13.62
-1.25
-17.1
-27.26
-28.66
-23.03
-15.4
-10.76
-11.05
-14.13
-15.44
-11.14
-0.92
11.38
19.86
19.88
10.77
-3.58
-16.69
-22.85
-19.88
-10.21
0.52
6.44
4.47
-4.38
-15.72
-24.25
-26.41
-21.98
-13.75
-5.57
0.22
4.19
9.26
18.26
31.23
44.5
52.32
50.3
38.46
22.12
9.47
7.45
17.53
34.29
47.86
48.91
33.6
5.87
-24.53
-47
-55.3
-50.35
-39.05
-29.74
-26.96
-28.65
-27.83
-17.83
2.46
26.67
44.26
46.97
34.58
15.97
4.65
10.93
35.63
68.53
93.48
97.03
75.41
36.48
-4.87
-34.52
-46.11
-43.35
-36.8
-37
-48.11
-65.42
-78.27
-76.93
-58.88
-30.95
-5.76
5.87
1.59
-10.41
-15.92
-2.93
30.53
73.96
109.17
119.79
99.87
57.31
9.65
-25.13
-37.37
-30.03
-15.88
-9.36
-18.06
-38.53
-58.95
-66.89
-57.18
-35.15
-13.13
-2.34
-5.43
-14.52
-15.58
2.45
40.23
86.21
121.92
131.85
111.53
70.09
25.21
-5.96
-15.55
-8.18
2.1
0.31
-20.97
-57.07
-93.98
-116.24
-115.58
-95.49
-68.58
-48.82
-43.05
-46.68
-46.97
-31.47
3.39
48.59
86.71
101.7
88.13
54.7
19.85
1.27
6.43
28.7
51.3
57.57
40.39
6.32
-28.28
-46.79
-41.75
-18.63
7.69
21.92
17.3
-0.39
-16.67
-17.11
3.7
38.11
69.51
81.69
68.13
36.25
3.2
-14.06
-8.35
13.4
34.21
37.22
15.43
-24.12
-64.21
-87.61
-86.59
-66.82
-43.64
-32.43
-39.44
-57.98
-72.72
-68.88
-41.5
0.83
40.33
59.76
51.84
23.67
-7.71
-24.9
-19.86
1.63
23.76
30.43
14.74
-16.76
-47.71
-62.04
-53.41
-29.04
-5.71
0.72
-15.26
-44.88
-69.9
-72.85
-47.21
-1.72
43.95
69.42
64.35
33.75
-5.53
-34.16
-40.63
-26.85
-5.58
8.01
5.75
-8.66
-22.08
-20.77
0.67
35.02
65.95
77.76
64.51
33.97
3.61
-9.24
2.69
32.57
62.7
74.32
57.82
18.05
-28.71
-63.59
-75.15
-64.61
-43.54
-25.76
-18.59
-18.45
-13.89
6.17
44.17
90.32
126.8
137.42
116.48
72.18
22.69
-13.63
-27.47
-22.69
-13.32
-14.78
-34.59
-67.77
-99.71
-114.66
-105.01
-75.72
-41.22
-16.72
-9.17
-13
-14.03
1.34
37.11
83.82
123.13
137.78
121.08
80.77
34.73
0.89
-11.91
-8
-1.21
-5.52
-26.32
-56.6
-81.01
-84.96
-63.68
-25.89
10.6
28.61
21
-5.12
-32.74
-44.62
-32.84
-3.35
27.72
43.42
35.44
8.71
-21.94
-40.97
-41.06
-27.19
-13.14
-12.26
-28.87
-54.75
-73.42
-69.77
-39.3
8.26
53.17
76.08
68.03
35.36
-3.93
-29.59
-29.57
-6.11
26.16
48.65
49.11
28.15
-1.98
-25.38
-31.83
-22.72
-9.14
-3.87
-12.43
-28.95
-39.29
-30.46
0.48
43.33
79.35
91.93
75.98
41.14
6.68
-8.96
1.82
31.89
63.03
76.09
60.95
21.83
-25.41
-61.87
-75.52
-67
-48.1
-34.27
-35.3
-49.58
-65.91
-71.06
-58.38
-32.4
-5.86
8.76
7.58
-1.53
-3.44
14.45
53.74
102.56
141.12
152.54
132.03
89.4
43.83
13.47
6.14
16.26
28.68
28.15
7.9
-26.57
-61.05
-81.09
-80.28
-63.85
-45.02
-36.87
-44.32
-60.66
-71.71
-64.58
-36.02
4.49
39.32
52.67
39.42
8.58
-21.44
-32.83
-17.91
16.54
53.01
72.88
66.25
36.88
-0.55
-29.25
-39.53
-33.69
-23.36
-21.3
-32.89
-52.3
-66
-61.84
-37.3
-2.42
25.14
30.42
10.11
-24.45
-52.98
-57.1
-30.41
17.69
66.34
94.22
90.12
58.45
16.24
-16.03
-25.09
-11.49
11.85
27.5
23.62
0.7
-29.61
-51.88
-56.23
-44.13
-26.66
-16.66
-20.08
-31.84
-38.8
-29.04
-0.21
37.66
66.86
72.54
51.65
15.56
-15.59
-23.79
-3.01
37.49
77.74
97.97
88.77
55.96
16.8
-9.42
-12.05
5.31
27.22
35.36
18.9
-19
-63.01
-94.12
-100.13
-82.33
-54.36
-33.86
-32.14
-47.76
-68.1
-77.84
-68.5
-43.76
-16.83
-1.68
-3.91
-16.8
-25.35
-15.76
15.58
59
96.69
113.07
103.91
79.26
57.41
54.37
74.39
107.53
135.45
142.29
123.88
90.28
59.82
48.22
59.42
83.28
101.52
98.41
69.71
25.09
-17.33
-41.58
-42.43
-28.38
-16.46
-22.19
-50.93
-94.46
-135.62
-157.9
-154.23
-131.17
-104.77
-91.47
-99.15
-122.75
-147.7
-158.48
-147.56
-119.6
-88.56
-69.1
-68.03
-80.09
-91.36
-87.87
-63.94
-25.95
11.36
33.85
36.44
26.21
18.13
25.57
52.1
88.8
119.04
128.47
113.54
84.06
57.71
49.9
64.89
93.07
116.32
118.51
94.65
54.07
15.18
-4.71
0.87
23.92
46.42
50.51
28.17
-14.07
-58.85
-87.37
-89.55
-69.22
-41.73
-24.91
-28.99
-50.91
-76.59
-89.74
-81.62
-56.35
-28.14
-12.31
-15.69
-31.89
-45.56
-41.86
-15.93
23.56
59.4
76.14
69.53
49.52
34.1
38.75
67.05
108
142.29
153.33
136.63
102.61
70.26
56.16
64.92
86.73
103.34
98.99
69.48
24.69
-17.3
-40.79
-41.11
-27.09
-15.25
-19.88
-44.78
-80.92
-112.04
-124.13
-113.39
-88.38
-64.64
-55.41
-63.93
-81.26
-91.96
-83.53
-54.05
-14.26
18.5
30.24
18.46
-5.7
-23.88
-20.8
6.9
48.14
83.5
96
80.4
46.04
11.35
-6.74
-1.75
18.72
37.95
40.01
18.7
-19.03
-57.5
-81.58
-85.17
-74.14
-61.86
-60.33
-72.4
-89.69
-97.81
-85.84
-53.67
-13.28
17.73
26.31
11.8
-13.02
-28.97
-21.11
12.68
60.07
100.58
116.52
102.1
66.44
28.22
5.56
6.6
25.29
45.32
49.65
30.07
-8.03
-48.81
-74.91
-76.9
-58.38
-33.15
-16.73
-17.04
-29.77
-41.56
-38.96
-17.22
16.03
45.28
56.82
47.67
28.05
15.65
24.82
57.42
100.83
134.58
141.94
119.25
78.09
38.57
18.23
22.62
42.74
60.62
59.8
34.18
-8.86
-53.13
-82.85
-91.15
-83.18
-72.26
-71.54
-86.02
-109.48
-128.48
-130.77
-112.81
-82.43
-54.01
-39.69
-41.83
-51.12
-52.15
-33.02
6.8
54.87
92.05
103.14
85.45
50.73
18.78
6.73
19.82
48.57
74.17
79.17
56.9
15.13
-28.42
-55.77
-58.26
-40.64
-17.62
-4.92
-10.07
-28.18
-45.59
-48.69
-32.38
-3.6
23.13
34.92
28.79
14.2
7.35
21.19
56.81
101.54
135.61
143.21
121.58
83.06
47.95
33.36
43.64
68.25
88.06
86.54
58.97
14.89
-27.56
-52.31
-54.16
-41.37
-30.05
-34.42
-58.41
-93.39
-123.57
-135.37
-125.2
-101.41
-78.87
-69.8
-76.48
-89.69
-94.5
-79.7
-44.86
-1.72
32.41
44.52
33.4
10.89
-4.99
-0.15
27.29
65.41
95.03
100.35
77.7
37.56
-1.42
-22.71
-20.44
-2.28
15.79
18.98
2.23
-27.01
-53.52
-63.63
-53.38
-30.92
-11.36
-7.24
-20.51
-40.78
-51.07
-38.38
-2.04
44.6
81.05
90.9
70.93
33.16
-2.22
-17.51
-7.23
19.34
43.74
48.74
27.7
-11.91
-53.19
-79.42
-82.71
-67.78
-47.84
-35.94
-36.83
-43.87
-43.64
-24.7
14.17
61.65
99.56
112.94
98.95
68.98
42.47
35.82
53.19
83.86
108.6
110.89
86.16
44.15
2.7
-22.72
-27.66
-20.25
-15.26
-24.3
-48.4
-77.12
-94.69
-89.76
-62.46
-25.24
3.93
11.41
-4.48
-32.14
-53.35
-53.08
-28.12
10.83
44.82
56.88
41.01
5.41
-32.52
-56
-57.32
-41.56
-21.98
-11.35
-13.63
-21.53
-21.2
-1.41
38.48
86.42
123.58
134.71
116.8
80.95
46.25
28.81
33.02
49.07
59.23
48.61
13.97
-34.03
-77.31
-100.65
-100.21
-85.07
-70.96
-70.38
-84.73
-103.47
-110.3
-93.53
-53.53
-3.8
36.08
50.98
38.43
10.15
-14.81
-20.33
-2.25
29.49
56.48
62.3
41.47
2.61
-36.77
-60.13
-60.28
-42.79
-21.15
-8.07
-7.47
-12.11
-8.5
14.12
55.98
104.89
142.18
153
134.75
98.88
64.56
47.7
52.23
67.85
76.58
63.6
26.1
-24.95
-71.49
-98.68
-103.13
-93.88
-85.9
-90.32
-107.34
-125.98
-130.73
-111.55
-70.51
-22
14.73
25.78
10.29
-18.77
-41.6
-42.02
-16.31
24.64
61.14
75.35
60.44
24.22
-15.8
-42.14
-46.21
-32.41
-14.01
-4.51
-9.08
-21.27
-27.42
-15.59
16.28
57.81
91.75
104
92.13
67.18
47.46
47.57
69.74
101.86
124.3
121.1
88.94
38.92
-9.88
-41.06
-49.62
-43.69
-38.67
-47.29
-71.93
-103.12
-125.55
-127.56
-108.14
-77.72
-51.59
-40.64
-44.76
-52.68
-49.08
-24.09
20.03
68.82
103.12
109.41
86.91
48.3
12.75
-4.11
1.91
21.74
38.81
38.56
16.79
-18.22
-50.7
-66.75
-62.11
-44.47
-27.91
-23.85
-33.42
-46.36
-47.25
-25.54
16.85
64.94
98.26
102.02
75.73
33.9
-1.55
-12.9
3.95
37.51
67.27
75.12
54.72
14.69
-27.03
-53.25
-56.88
-44.06
-29.57
-27.55
-42.63
-67.1
-85.89
-85.99
-64.46
-30.72
-0.45
13.93
11.11
2.02
2.98
25.52
68.56
117.76
153.1
159.89
136.8
96.44
58.06
36.7
35.33
43.65
45.05
26.83
-12.13
-60.46
-100.89
-120.2
-116.57
-99.97
-85.56
-84.17
-95.59
-108.58
-107.86
-83.97
-39.75
9.8
45.43
53.94
35.51
3.92
-21.07
-24.05
-2.47
32.15
60.58
66.56
45.41
6.48
-32.53
-55.45
-55.92
-40.25
-22.4
-15.12
-21.92
-35.05
-40.78
-28.42
2.41
40.49
69.48
77.63
65.14
44.67
33.97
45.39
78.16
117.92
144.65
143.66
113.94
68.72
27.96
7.18
9.05
22.06
27.73
11.51
-28.75
-81.38
-127.52
-151.69
-150.07
-131.85
-112.8
-105.59
-112.14
-122.91
-123.66
-104.92
-68.36
-26.53
4.95
16.76
11.76
3.6
8.35
34.64
77.95
122.2
148.68
146.36
118.2
79.56
49.65
41.18
53.74
74.27
85.12
74.06
41.25
-0.93
-35.08
-48.48
-40
-20.22
-4.65
-4.5
-19.91
-40.01
-49.8
-39.58
-11.27
21.97
43.38
42.46
21.58
-4.8
-18.25
-6.97
27.12
68.58
97.03
98.13
71.43
30.56
-4.9
-20.24
-13.63
2.88
11.2
-2.22
-38.31
-84.61
-122.56
-138.07
-129.26
-107.11
-88.17
-84.41
-95.83
-110.4
-111.8
-89.76
-46.97
1.36
36.14
45.13
30.05
5.83
-7.71
3.01
37.61
81.58
114.23
119.72
95.4
53.02
11.79
-12.08
-13.65
-1.21
9.65
5.75
-15.68
-45.41
-68.25
-72.51
-57.11
-32.23
-12.45
-7.26
-14.75
-22.38
-14.94
15.58
63.94
113.16
143.54
143.33
115.27
75.19
43.27
33.12
44.72
64.7
74.54
61.22
24.57
-22.7
-62.42
-81.18
-77.6
-62.48
-51.67
-56.35
-76.2
-99.65
-111.27
-101.32
-71.91
-36.19
-10.22
-3.49
-13.07
-25.16
-23.31
1.55
45.17
91.24
120.1
119.29
90.22
47.54
10.95
-5.17
0.99
18.24
29.66
22.4
-4.79
-41.1
-70.41
-80.8
-71.27
-51.95
-37.01
-35.57
-45.74
-55.46
-50.43
-23.39
20.33
64.38
90.41
88.15
61.67
27.45
5.52
8.41
34.26
67.53
87.84
81.16
47.57
1.23
-37.6
-53.71
-45.22
-24.38
-10.01
-16.57
-45.72
-85.55
-117.73
-128.11
-114.41
-86.76
-60.59
-46.83
-45.24
-44.99
-32.35
-0.21
46.33
91.73
118.96
119.32
97.87
70.86
56.38
64.19
90.1
118.06
129.61
114.08
74.62
26.28
-12.34
-29.17
-24.54
-10.17
-1.64
-9.21
-32.02
-59.02
-76.13
-75.01
-58.3
-38.23
-28.83
-37.19
-58.22
-77.08
-77.59
-52.15
-7.04
39.66
67.86
66.01
37.81
0.28
-25.49
-25.57
-0.57
34.66
59.81
60.21
34.72
-4.03
-37.26
-50.78
-42.76
-24.28
-12.07
-18.17
-42.48
-72.93
-92.88
-91.3
-69.19
-38.9
-16
-9.63
-16.55
-23.38
-14.94
15.76
62.2
106.76
130.33
122.69
88.38
44.27
10.75
0.96
14.42
37.62
52
44.15
13.05
-30
-67.95
-87.64
-86.45
-72.53
-58.73
-54.03
-57.64
-59.88
-48.94
-19.43
22.9
63.22
86.1
84.55
64.91
43.29
36.68
53.04
86.29
119.18
132.81
116.82
75.11
23.49
-18.96
-39.82
-39.25
-28.62
-22.95
-31.94
-54.16
-78.31
-90.52
-82.98
-59.14
-31.78
-15.06
-15.8
-28.53
-38.45
-30.24
2.38
51.73
99.09
124.69
117.97
83.45
37.98
1.35
-13.88
-8.72
4.23
8.98
-4.13
-32.72
-63.83
-82.11
-79.13
-58.6
-34.33
-21.49
-27.34
-46.34
-62.88
-60.5
-31.85
16.38
65.98
96.99
98.02
72.14
34.74
4.55
-6.31
1.4
15.28
19.47
4.19
-27.96
-63.34
-85.19
-83.54
-61.41
-33.3
-16.67
-21.59
-44.57
-70.26
-80.15
-63.2
-22.57
25.64
61.01
69.69
51.46
19.08
-9.65
-21.89
-16.4
-2.91
5.22
0.15
-15.17
-28.25
-25.25
-0.02
40.96
80.93
102.03
94.96
64.43
26.51
-0.19
-4.78
10.26
30.73
39.05
24.57
-10.15
-50.86
-79.71
-85.19
-68.29
-40.96
-18.12
-8.4
-8.97
-7.97
7.02
40.17
83.09
118.61
130.24
111.59
70.2
23.8
-9.59
-20.95
-14.41
-4.06
-4.66
-22.72
-52.21
-77.86
-83.82
-63.24
-22.85
19.92
45.87
44.12
17.87
-17.58
-43.43
-47.44
-30.4
-4.84
12.89
12.36
-4.59
-25.35
-34.7
-24.34
1.44
28.01
39.54
28.72
1.69
-25.06
-34.68
-19.98
11.85
42.69
53.85
36.79
-1.79
-43.83
-69.73
-69.19
-46.23
-16.21
3.8
4.93
-8.54
-22.34
-21.24
1.68
39.86
76.66
94.35
83.87
49.81
7.83
-24.47
-37.08
-32.39
-22.98
-22.71
-37.79
-62.33
-81.33
-79.55
-51.12
-4.06
42.99
70.18
67.03
37.95
-0.85
-30.48
-39.68
-30.03
-13.59
-4.07
-7.84
-19.52
-25.39
-12.47
22.63
70.06
110.84
126.92
110.82
69.54
20.75
-16.84
-32.92
-29.78
-19.49
-15.33
-23.4
-38.54
-47.88
-38.99
-8.34
35.1
74.09
92.03
81.91
50.15
12.79
-13.84
-21.87
-15.7
-8.6
-13.62
-35.21
-65.74
-89.66
-92.47
-69.74
-30.17
8.27
28.04
21.39
-5.56
-36.71
-55.36
-53.52
-35.83
-15.82
-6.62
-12.52
-25.67
-30.91
-15.36
23.08
72.95
114.35
129.43
111.9
70.38
23.71
-9.26
-19.25
-10.48
3.33
8.17
-1.45
-18.91
-30.08
-22.26
7.18
47.84
81.49
91.88
73.91
36.57
-2.19
-25.84
-28.08
-15.67
-3.32
-4.02
-21.16
-46.75
-66.6
-69.4
-53.81
-29.07
-9.61
-6.29
-19.98
-41.17
-55.93
-54.07
-35.02
-8.06
13.34
19.06
7.75
-12.63
-30.02
-35.04
-26
-9.41
4.65
8.79
2.61
-7.24
-11.19
-2.92
16.72
39.68
54.9
54.46
37.96
12.66
-10.46
-22.58
-21.71
-12.89
-4.49
-2.95
-8.66
-15.98
-17.13
-7.12
12.58
34.22
47.88
46.86
31.36
8.76
-10.53
-18.68
-14.49
-3.74
4.63
4.2
-5.19
-17.47
-24.16
-19.83
-5.61
11.3
21.7
19.89
7.53
-7.12
-13.83
-6.39
13.16
35.12
47.2
41.12
17.32
-15.12
-43.53
-58.34
-57.82
-48.3
-39.61
-39.02
-47.48
-59.53
-67.18
-64.82
-52.26
-34.48
-18.67
-9.9
-8.55
-10.57
-10.3
-4
7.68
20.5
29.65
33.04
33.08
35.48
45.34
63.56
85.24
101.5
104.5
92.26
70.77
52.01
47.82
63.23
92.83
122.06
133.96
117.62
73.87
15.4
-38.63
-70.93
-73.01
-47.79
-7.95
28.96
46.37
33.48
-11.79
-82.55
-165.45
-245.26
-309.72
-352.91
-375.21
-380.38
-372.25
-353.25
-325.47
-292.79
-261
-235.03
-214.9
-193.83
-160.74
-106.45
-29.7
60.72
149.45
221.21
267.12
287.44
289.46
283.09
276.37
272.89
271.72
268.95
259.94
241.4
213.05
177.42
138.57
100.19
64.55
32.87
6.97
-9.61
-12.49
0.62
26.66
56.09
76.19
76.99
57.1
25.58
-2.21
-12.61
-1.55
22.9
44.93
50.1
33.4
2.23
-28.47
-45.32
-44.24
-32.64
-24.11
-29.39
-49.09
-72.59
-84.31
-73.11
-39.53
3.58
37.73
48.89
35.15
7.58
-16.36
-23.03
-10.42
10.91
24.73
19.31
-5.17
-36.31
-56.89
-55.1
-31.59
0.67
23.84
25.59
6.15
-21.33
-38.21
-30.8
1.9
47.05
85.01
99.85
87.5
57.44
26.34
8.32
7.23
15.34
19.5
10.2
-11.82
-35.66
-46.92
-36.65
-7.32
27.56
50.73
50.52
27.47
-5.67
-30.8
-34.52
-15.57
14.1
36.01
35.74
10.84
-27.83
-62.56
-79.06
-74.05
-56.34
-40.49
-37.47
-47.71
-61.1
-63.58
-46.01
-10.33
30.69
60.46
67.61
52.36
26.68
7.19
5.77
22.93
47.11
62.04
56.31
30.31
-4.02
-30.1
-36.8
-24.78
-5.87
4.15
-4.72
-30.41
-59.58
-75.07
-65.09
-29.97
17.64
58.99
78.07
68.93
37.98
-0.46
-31.84
-48.34
-51.65
-49.61
-49.5
-52.4
-51.57
-36.93
-2.21
49.36
103.92
142.65
150.68
125.36
78.17
29.99
0.6
-1.1
18.8
43.26
54.33
43.34
15.14
-15.93
-35.49
-38.14
-30.18
-24.23
-30.04
-47.43
-66.12
-72.93
-60.68
-33.35
-4.16
12.25
8.41
-11.63
-34.17
-43.69
-31.49
-0.29
36.25
60.66
60.58
35.28
-4.02
-39.94
-58.09
-54.12
-35.15
-14.72
-4.43
-7.1
-15.84
-18.98
-8.1
15.94
42.64
57.7
51.33
24.5
-10.67
-37.45
-43.35
-27.17
0.09
21.67
24.43
6.28
-22.38
-45.39
-50.75
-37.36
-15.59
-0.01
0.07
-13.29
-27.71
-28.27
-7.02
31.42
71.33
94.34
89.41
59.23
19.15
-10.72
-16.14
3.7
35.88
60.95
63.49
40.38
1.91
-34.86
-56
-58.51
-50.82
-46.17
-53.27
-70.36
-85.87
-86.03
-63.7
-23.48
19.59
48.32
52.33
33.7
6.09
-12.81
-10.77
12.48
44.78
68.31
69.42
46.24
9.63
-23.07
-38.06
-32.79
-16.74
-4.83
-7.72
-24.63
-43.56
-48.8
-30.66
7.67
50.83
79.49
80.76
55.5
18.09
-11.46
-18.46
-1.42
27.12
48.04
46.63
20.65
-18.68
-53.83
-71.41
-69.42
-57.59
-50.1
-56
-73.25
-89.64
-90.4
-67.38
-24.58
22.72
55.89
62.29
41.95
7.82
-21.22
-30
-14.99
14.07
39.93
47.71
33.23
5.05
-21.06
-32.06
-25.23
-9.25
2.16
-0.33
-14.93
-29.39
-28.63
-4.38
38.76
84.39
112.95
112.08
83.34
42.14
9.33
0.45
17.64
48.5
73.56
76.89
54.89
17.77
-16.98
-35.11
-33.66
-21.94
-14.65
-21.88
-42.36
-63.58
-69.75
-51.68
-13.13
29.96
58.14
58.99
34.06
-1.28
-26.34
-26.12
0.6
40.23
72.19
80.21
60.92
25.44
-7.75
-23.91
-20.11
-6.4
1.46
-7.55
-32.59
-61.3
-77.35
-70.69
-43.7
-10.46
11.45
10.85
-10.7
-39.4
-56.96
-50.46
-19.6
22.6
56.66
66.76
48.98
13.26
-22.36
-42.03
-40.51
-25.51
-12.12
-12.88
-29.9
-53.94
-70.33
-68.71
-49.44
-23.67
-6.18
-6.21
-21.62
-39.83
-45.31
-28.56
7.91
50.22
80.1
84.27
61.52
23.41
-11.92
-29.18
-24.08
-4.87
13.07
16.61
2.75
-20.14
-37.93
-39.94
-25.53
-4.21
10.91
11.78
0.83
-10.32
-8.2
13.95
51.3
89.1
110.52
105.77
77.7
40.88
14.08
10.42
30.3
61.02
83.55
82.85
55.98
13.28
-27.76
-52.49
-57.11
-49.69
-44.07
-50.45
-68.8
-88.86
-96.89
-84.49
-54.12
-18.49
6.88
12.34
-0.26
-18.18
-25.13
-10.32
25.1
67.72
98.84
104.22
81.84
42.99
6.17
-13.29
-11.46
2.73
13.41
8.04
-14.83
-44.95
-66.9
-69.62
-53.16
-28.34
-9.88
-7.47
-19.95
-35.9
-40.76
-25.28
8.87
49
78.34
84.53
66.35
34.68
6.72
-3.28
8.19
31.82
50.76
50.54
27.42
-9.63
-44.33
-62.82
-61.6
-48.8
-38.4
-40.96
-56.79
-75.68
-83.49
-70.77
-38.81
0.25
30.18
39.39
27.28
5.07
-10.53
-6.33
19.95
57.71
89.16
98.86
82.23
47.78
12.32
-9.04
-11.35
-1.71
5.57
-1.26
-23.94
-52.95
-73.49
-74.45
-55.23
-26.45
-3.88
0.4
-15.17
-40.4
-58.97
-57.03
-30.73
11.11
51.43
73.68
70.15
46.18
16.64
-2.71
-4
8.44
21.54
22.3
6.44
-18.74
-38.58
-40.65
-22.83
5.14
27.14
30.78
14.88
-9.38
-24.87
-18.44
11.43
53.04
87.18
96.96
76.38
33.86
-12.01
-41.58
-44.03
-22.75
6.79
25.76
22.16
-2.72
-35.91
-60.88
-67.23
-56.52
-40.03
-30.57
-33.74
-44.06
-48.55
-35.69
-3.48
38.1
71.75
82.9
67.98
37.06
8.95
1.14
20.46
59.17
98.43
118.12
107.08
68.8
19.11
-22.4
-43.09
-43.13
-34.25
-31.43
-43.38
-67.1
-90.23
-99
-87.09
-59.88
-31.33
-15.36
-17.43
-30.88
-40.65
-32.37
-1.13
44.75
87.15
107.82
97.99
63.32
21.18
-8.59
-14.39
1.26
23.35
33.43
20.23
-13.92
-55.03
-85.75
-95.47
-85.72
-68.18
-56.3
-56.52
-63.99
-65.87
-49.97
-13.3
34.67
75.92
93.61
81.16
46.48
8.07
-14.44
-10.6
15.38
46.77
63.49
52.99
16.8
-30.69
-70.58
-89.91
-87.84
-74.76
-64.28
-64.25
-71.62
-74.71
-61.26
-26.9
20.77
65.13
89.53
86.11
60.53
29.13
10.37
15.07
40.55
71.9
90.15
82.58
49.73
4.82
-33.96
-53.88
-54.24
-45.57
-41.72
-50.31
-67.28
-79.18
-71.91
-39.91
9.24
57.77
87.25
88.28
65.61
35.6
17.18
21.93
47.8
80.22
100.22
94.74
63.7
19.71
-19.39
-40.75
-43.23
-36.81
-34.93
-45.11
-63.47
-76.8
-70.95
-40.23
7.88
55.43
83.43
81.85
55.02
19.66
-4.2
-3.47
21.07
55.26
79.36
78.56
50.92
8.11
-31.56
-53.51
-54.76
-44.44
-36.83
-41.59
-57.33
-72.13
-71.37
-47.36
-5.23
38.57
64.9
62.29
33.39
-6.11
-35.84
-41.54
-22.38
8.8
33.02
35.75
14.8
-18.72
-47.53
-58.24
-49.11
-30.42
-17.12
-19.03
-34.36
-50.36
-51.24
-28.15
14.7
61.11
91.4
93
67.23
28.75
-2.63
-12.6
0.07
23.35
39.44
35.23
9.76
-25.36
-53.34
-62.05
-50.93
-30.72
-16.1
-16.21
-28.82
-41.39
-38.82
-12.92
31.91
79.79
111.45
114.32
89.09
49.26
13.58
-3.99
-1.53
10.78
17.58
8.03
-17.48
-47.51
-66.83
-65.41
-44.69
-16.74
2.93
4.57
-10.13
-28.65
-35.03
-19.14
17.28
60.68
92.84
100.33
81.37
46.34
11.46
-10.45
-16.72
-15.26
-18.68
-35.46
-63.72
-91.41
-102.84
-87.6
-47.23
4.38
47.61
66.57
57.23
29.51
1.52
-10.25
0.27
25.27
48.07
52.88
33.83
-1.69
-37.65
-59.09
-60.37
-47.69
-34.32
-31.32
-40.54
-53.15
-55.22
-36.4
2.91
50.53
87.83
99.07
79.59
38.6
-5.81
-36
-43.57
-33.13
-17.65
-9.98
-14.71
-25.46
-29.77
-17.94
10.12
43.48
66.15
66.58
44.7
12.49
-12.1
-15.01
6.28
41.28
71.59
80.67
62.31
23.57
-19.63
-51.38
-64.28
-62.42
-57.04
-58.43
-68.52
-79.13
-77.47
-54.72
-12.71
35.09
70.43
79.94
62.73
31.15
4.35
-2.47
13.72
42.26
64.83
66.27
43.01
4.96
-30.64
-49.21
-47.05
-32.53
-20.24
-21.65
-37.69
-58.05
-67.5
-55.03
-20.92
22.35
56.56
67.25
51.45
19.32
-11.75
-26.88
-21.82
-4.96
8.35
5.75
-14.31
-41.29
-58.72
-54.24
-27.18
10.68
41.49
51.41
38.32
13.02
-6.95
-7.4
14.57
48.63
77.06
84.62
66.86
32.51
-2.12
-22.55
-24.29
-14.92
-8.58
-16.69
-40.38
-69.41
-87.95
-83.88
-56.12
-15.77
19.53
34.99
26.51
2.7
-19.93
-26.52
-12.23
14.79
38.21
43.22
25.14
-7.42
-37.75
-50.81
-41.78
-18.61
3.16
10.13
-0.68
-19.87
-31.41
-22.32
9.21
51.9
87.23
99.41
83.87
49.77
14.6
-5.77
-5.71
7.29
17.94
12.89
-10.87
-43.84
-69.48
-74.03
-54.55
-20.81
10.17
23.75
15.8
-4.97
-22.14
-21.27
1.73
37.81
69.67
81.54
67.72
35.78
1.64
-19.71
-22.77
-14.16
-7.82
-15.7
-39.86
-70.67
-92.12
-90.91
-64.19
-21.74
18.96
41.71
39.91
19.8
-3.24
-13.58
-4.12
19.67
43.1
51.4
38.47
10.87
-16.3
-28.53
-20.52
0.73
20.39
25.11
11.37
-12.11
-29.51
-26.99
-0.97
39.25
76.19
93.36
83.87
54.04
19.72
-2.74
-5.45
6.82
20.06
20.18
1.85
-27.95
-54.06
-62.55
-49.31
-22.74
0.88
7.13
-8.05
-35.6
-58.4
-61
-38.43
0.59
38.33
57.5
50.46
23.05
-9.35
-30.83
-34.04
-24
-14.37
-18.19
-39.43
-69.88
-93.46
-95.63
-71.86
-30.78
10.13
33.94
33.33
14.3
-7.27
-14.83
-0.68
29.75
60.88
76.36
68.19
41.55
11.15
-7.6
-7.69
5.74
19.14
19.61
3.49
-20.93
-38.11
-34.43
-6.66
35.32
73.18
89.85
78.25
45.24
7.52
-17.49
-21.01
-7.7
7.77
9.74
-8.81
-42.06
-74.4
-90.06
-82.4
-57.59
-31.17
-18.14
-24.25
-42.21
-56.17
-51.03
-21.51
23.94
67.2
89.9
83.24
52.39
13.51
-15.61
-25.15
-17.94
-6.78
-5.24
-18.86
-40.85
-56.11
-50.45
-19.56
27.05
70.6
92.88
86.11
56.99
23.33
4.09
9.29
35.02
65.63
83
76.29
47.98
11.58
-16.46
-26.44
-20.6
-10.85
-10.55
-25.42
-49.58
-68.6
-68.38
-43.99
-3.44
35.84
56.4
50.04
22.4
-10.14
-29.73
-26.67
-4.95
20.33
31.98
20.69
-9.48
-43.52
-64.37
-62.82
-42.48
-17.46
-3.33
-7.76
-25.74
-42.61
-42.81
-19.14
22.31
64.74
89.36
85.18
55
13.84
-19.2
-31
-21.42
-2.65
8.66
1.48
-22.72
-50.96
-66.98
-61.01
-36.02
-6.18
12
9.5
-9.64
-30.63
-36.95
-20.22
14.55
51.06
70.68
62.57
29.79
-12.35
-44.64
-54.3
-41.57
-18.78
-2.32
-2.72
-18.29
-36.49
-42.03
-26.38
6.34
41.1
60.65
55.3
28.87
-2.99
-21.58
-15.45
13.16
49.07
72.61
70.31
42.3
2.12
-31.18
-43.78
-34.53
-14.84
-0.86
-3.23
-20.35
-39.58
-45.32
-29
5
41.08
61.38
55.8
28.03
-6.21
-28.1
-26.15
-2.42
28.31
47.22
41.86
13.2
-24.95
-54.18
-61.84
-47.87
-24.45
-7.71
-7.81
-22.59
-38.95
-41.07
-20.15
19.75
63.09
91.49
93.64
71.52
39.53
16.36
14.77
34.54
62.55
80.24
73.97
42.62
-1.87
-41.54
-62.84
-63.61
-53.66
-47.42
-54.38
-72.6
-89.5
-89.96
-65.79
-21.61
26.23
58.46
62.98
41.73
9.82
-12.52
-10.72
16.08
54.57
84.75
91.06
70.61
34.23
-0.56
-20.33
-23.22
-18.73
-20.38
-35.88
-61.59
-84.43
-90.2
-72.9
-38.84
-3.74
16.15
13.11
-7.83
-31.23
-39.78
-23.28
15.89
63.2
99.21
108.87
89.28
51
12.43
-9.92
-10.34
3.73
16.96
16.15
-1.54
-26.99
-44.85
-43.59
-23.07
5.01
24.02
22.5
1.15
-27.08
-44.5
-38.69
-9.68
29.45
59.4
64.8
42.32
2.71
-35.14
-54.32
-48.83
-26.69
-4.53
2.49
-10.22
-34.04
-52.82
-52.98
-32.09
-0.66
24.35
29.87
14.76
-9.35
-25
-19.25
8.53
45.73
73.51
77.17
54.28
16.34
-17.82
-32.4
-23.12
0.4
20.72
22.96
3.52
-27.8
-53.87
-60.56
-45.07
-17.52
5.59
11.56
-0.84
-20.67
-31.64
-22.07
7.87
45.6
72.95
76.35
54.26
18.56
-12.07
-22.02
-7.12
22.78
49.33
55.66
35.81
-1.96
-39.8
-60.65
-57.7
-37.86
-16.9
-9.2
-18.9
-37.45
-49.43
-42.57
-15.79
19.42
45.57
49.54
30.4
0.73
-20.44
-17.91
11.14
54.94
93.1
107.06
89.72
49.05
3.58
-28.05
-37
-28.22
-16.28
-15.4
-30.35
-53.64
-70.65
-69.43
-48.67
-18.99
3.36
6.51
-9.67
-32.7
-44.71
-32.46
4.8
54.09
95.12
110.75
95.71
59.54
21.19
-1.31
-0.58
16.58
33.7
34.93
14.58
-19.77
-52.02
-67.83
-63.18
-46.34
-32.32
-32.85
-48.86
-69.42
-78.47
-64.56
-28.12
17.82
54.45
67.21
53.49
24.38
-1.52
-8.1
9.59
42.48
72.6
83.14
67.53
32.88
-4.55
-29.05
-34.41
-26.98
-20.93
-28.78
-53.13
-84.52
-106.96
-107.74
-85.24
-50.36
-20.45
-9.14
-18.7
-38.29
-50.26
-40.12
-4.83
44.53
88.28
108.2
97.05
62.37
22.43
-3.66
-6.28
10.1
30.22
37.78
25.23
-1.79
-28.49
-40.5
-32.69
-12.39
5.85
9.84
-2.26
-20.45
-28.89
-15.82
18.95
62.87
96.84
105.34
84.6
45.1
6.13
-14.16
-8.04
17.82
46.29
59.47
48.6
18.6
-15.42
-37.39
-39.96
-28.63
-17.63
-20.57
-41.52
-72.09
-96.41
-100.88
-82.51
-50.86
-22.62
-11.45
-20.19
-38.84
-50.31
-40.22
-5.05
44.82
90.24
112.8
104.25
70.8
29.73
-0.03
-8.07
2.63
17.96
22.08
7.05
-22.08
-50.93
-64.6
-57.1
-35.3
-14.34
-8.25
-21.06
-44.3
-61.75
-59.46
-34
5.23
40.64
56.49
47.2
20.89
-5.07
-13.28
4.31
41.39
80.52
102.1
95.03
62.45
20.06
-13.22
-25.94
-19.75
-7.66
-4.67
-18.17
-42.85
-64.72
-70.05
-54.47
-26.15
-0.74
8.2
-2.41
-23.25
-37.95
-33.08
-5.99
33.2
66.55
78.31
63.04
29.16
-5.53
-22.98
-14.42
14.72
47.65
65.17
56.24
23.48
-18.32
-51.37
-64.98
-60.68
-50.24
-46.74
-55.81
-71.45
-80.27
-70.19
-38.92
3.55
39.99
55.66
46.59
22.05
-0.35
-4.34
16.53
55.22
94.5
115.99
109.4
78.17
37.74
7.52
0.58
16.72
42.54
59.27
53.44
24.29
-16.1
-50.48
-66.46
-63.4
-51.4
-43.75
-47.84
-60.18
-69.23
-63.6
-40.23
-7.2
20.47
30.2
19.46
-2.12
-17.8
-13.44
14.52
56.43
93.67
108.5
93.12
53.95
8.41
-24.01
-32.09
-18.45
2.35
12.51
1.26
-28.72
-63.33
-85.64
-85.74
-66.4
-40.71
-24.19
-26.18
-45.26
-71.01
-90.82
-96.64
-88.43
-73.17
-59.09
-50.37
-44.28
-32.49
-6.5
36.19
88.54
135
157.99
146.79
104.07
46.05
-3.99
-26.71
-16.14
18.23
56.92
80.76
80.75
61.05
34.5
14.33
6.13
6.17
5.87
-1.24
-14.57
-26.53
-28.31
-16.26
4.89
23.59
28.63
15.8
-8.99
-32.1
-39.29
-23.6
10.37
48.12
72.22
71.42
46.93
11.54
-16.85
-25.11
-12.08
11.34
29.02
29.04
10.78
-15.21
-34.86
-39.48
-31.46
-22.6
-25.71
-45.82
-76.28
-102.16
-109.47
-93.84
-63.39
-34.59
-22.58
-32.51
-56.46
-77.54
-79.18
-54.14
-8.71
40.15
73.41
79.48
60.29
30.18
8.17
7.86
29.93
61.69
84.47
84.2
59.38
21.77
-10.97
-25.68
-21.08
-7.66
0.03
-6.84
-25.48
-43.37
-46.66
-29.48
1.8
31.62
44.67
34.91
9.46
-14.94
-21.4
-2.18
36.73
78.21
102.99
99.73
70.86
31.27
0.17
-9.15
3.74
26.75
42.77
39.75
17.59
-12.45
-35.39
-42.04
-34.73
-25.46
-27.37
-45.78
-74.25
-98
-103.14
-85.37
-52.89
-22.47
-9.65
-20.18
-46.63
-72
-78.92
-58.67
-15.97
33.03
68.95
78.75
62.56
33.35
9.93
6.62
25.28
54.22
75.12
73.73
48.12
9.65
-24.12
-39.86
-35.83
-22.17
-13.25
-18.02
-34.01
-48.89
-48.59
-26.64
11.01
48.16
67.49
60.11
30.85
-3.82
-24.55
-19.44
9.54
47.29
73.8
74.89
49.66
10.43
-24.77
-42.47
-40.85
-29.57
-22.34
-27.73
-43.3
-57.35
-56.86
-36.16
-1.44
31.93
48.15
39.92
13.02
-16.36
-30.3
-18.77
14.91
55.34
83.25
85.55
61.96
24.47
-9.83
-28.41
-29.62
-22.29
-18.74
-26.24
-41.77
-53.83
-50.09
-25.38
13.77
51.68
71.96
66.25
39.11
5.9
-15.51
-14.31
7.55
36.13
53.65
48.44
21.52
-13.73
-39.01
-41.42
-20.84
10.02
32.56
32.79
9.33
-26.08
-55.72
-66.08
-55.55
-34.97
-20.03
-21.24
-36.9
-53.46
-53.89
-28.46
18.42
68.99
101.55
102.01
71.3
24.46
-17.79
-40.25
-40.31
-27.71
-17.34
-19.63
-34.14
-50.23
-54.13
-37.9
-5.25
29.89
51.49
50.5
30.47
5.99
-6.05
3.88
32.26
63.58
79.32
68.16
32.3
-13.68
-50.93
-66.7
-60.39
-43.03
-29.8
-30.58
-43.98
-58.48
-59.52
-38.76
-0.04
41.89
69.27
70.88
48.37
15.44
-10.05
-15.56
-0.62
23.13
39.18
35.67
12.24
-19.51
-43.28
-47.71
-32.88
-10.47
3.82
0.05
-19.32
-40.55
-46.37
-26.67
14.73
60.98
91.02
90.94
61.51
17.64
-19.86
-35.44
-26.9
-5.81
9.81
6.04
-18.96
-54.04
-82.13
-90.22
-76.66
-51.51
-29.31
-19.76
-21.38
-22.45
-8.88
26.24
77.03
126.33
154.83
151.13
118.05
71.06
29.95
8.65
8.57
18.77
23.31
10.81
-18.57
-53.32
-77.25
-79.32
-60.43
-33.13
-14.2
-14.75
-33.28
-56.33
-66.19
-51.32
-13.56
31.98
65.06
70.93
48.21
9.42
-26.36
-43.67
-38.74
-20.8
-5.81
-6.82
-26
-53.26
-72.68
-72.22
-51.2
-21.08
1.89
6.68
-5.28
-20.52
-21.57
2.14
47.32
97.31
130.98
133.98
106.34
61.92
20.57
-2.66
-5.01
3.9
8.74
-1.7
-27.72
-58.53
-78.84
-78.2
-57.52
-28.68
-7.23
-3.2
-14.86
-29.59
-31.83
-12.43
25.02
65.29
89.8
86.82
57.9
17.22
-16.55
-30.42
-23.53
-6.93
4.22
0.16
-17.17
-35.31
-38.75
-18.9
19.67
60.72
84.69
79.42
46.95
2.73
-32.68
-44.33
-30.67
-3.87
17.44
18.62
-2.81
-35.8
-62.92
-70.4
-56.18
-30.91
-10.59
-6.59
-18.22
-33.05
-34.67
-13.38
27.01
69.99
95.27
90.03
56.11
8.78
-31.78
-51.4
-48.57
-33.97
-22.78
-25.18
-40.14
-56.09
-58.09
-37.18
3.48
49.26
81.72
88.43
69.4
37.15
9.26
-1.42
6.19
21.02
26.94
12.63
-21.11
-61.45
-90.76
-97
-80.49
-53.54
-32.45
-27.46
-36.29
-45.45
-38.6
-7.11
43.89
96.85
131.08
133.74
106.47
64.08
26.11
6.26
6.12
15.7
20.94
12.93
-6.41
-25.49
-30.47
-14.15
18.64
52.84
71.37
64.4
35.12
-1.93
-29.02
-34.93
-21.22
-1.17
8.08
-4.36
-36.57
-74.52
-100.13
-101.63
-80.04
-48.56
-24.36
-18.34
-28.75
-42.42
-43.09
-21.67
17.58
58.56
82.27
77.36
46.65
5.39
-27.35
-39.12
-30.09
-12.05
-0.01
-2.71
-17.11
-30.01
-26.36
1.12
46.42
92.42
119.74
117.07
87.19
45.17
9.9
-6.02
-2.31
9.85
15.77
6.33
-16.2
-39.44
-48.55
-35.47
-4.29
30.17
50.66
46.94
21.63
-11.23
-34.25
-36.54
-19.9
2.03
11.78
-1.74
-36.55
-78.37
-108.85
-115.84
-99.64
-72.49
-50.21
-42.46
-46.81
-50.3
-37.85
-2.28
50.13
101.53
131.84
129.38
97.21
51.43
12.25
-6.4
-3.49
9.83
18.24
11.8
-7.92
-28.78
-35.98
-21.47
10.38
44.61
64.14
59.27
33.39
0.94
-20.99
-22.41
-6.16
13.65
19.94
2.6
-35.39
-79.17
-110.37
-117.32
-100.94
-73.96
-52.47
-46.13
-52.25
-57.68
-47.08
-13.27
37.29
86.76
115.36
112.14
80.84
37.62
1.82
-14.26
-10.87
0.71
6.64
-0.62
-17.42
-30.95
-27.23
-0.05
44.17
88.6
114.48
110.8
80.08
36.92
-0.02
-17.81
-15.45
-3.41
3.82
-2.96
-21.81
-40.59
-44.54
-25.95
10.54
49.35
72.48
69.38
42.75
6.69
-21.46
-30.81
-22.37
-7.76
-1.14
-10.32
-31.68
-52.06
-56.75
-38.64
-2.8
35.33
58.42
56.47
32.35
-0.28
-24.7
-30.6
-19.4
-2.86
4.74
-4.44
-26.7
-48.61
-54.93
-37.71
-1.34
38.91
65.1
65.99
43.04
9.15
-18.76
-29.3
-22.47
-9.05
-3.05
-12.7
-34.89
-56.43
-61.95
-43.11
-4.38
38.38
66.15
66.81
41.65
4.38
-26.75
-39.2
-32.47
-17.73
-9.77
-17.56
-38.17
-58.16
-61.86
-40.9
-0.23
43.56
70.93
69.72
41.68
1.23
-32.81
-47.47
-41.83
-26.58
-16.1
-19.34
-33.89
-47.47
-45.8
-21.66
19.24
60.46
83.31
77.04
44.66
1.29
-34.44
-50.39
-46.43
-33.38
-24.81
-28.37
-40.61
-49.36
-41.54
-11.81
32.66
75.17
98.04
92.13
61.59
21.76
-9.56
-21.4
-14.78
-1.38
4.65
-4.68
-25.67
-45.14
-48.11
-27.12
12.34
53.82
78.45
75.09
46.26
7.06
-23.23
-31.31
-16.91
7.5
24.28
20.74
-3.31
-35.67
-59.11
-61.63
-43.57
-17.24
1.09
1.26
-14.26
-31.65
-34.28
-13.25
26.44
67.57
90.03
81.93
46.29
-0.92
-39.68
-56.78
-51.86
-36.14
-24.11
-24.15
-33.37
-39.5
-29.03
3.76
51.98
98.45
124.58
120.05
88.23
44.43
7.52
-9.89
-7.27
4.55
10.83
2.07
-19.95
-43.26
-52.86
-39.93
-7.81
29.24
53.64
54.03
31.47
-1.45
-28.12
-37.18
-28.56
-13.2
-5.55
-14.63
-38
-62.71
-72.76
-58.79
-24
16.59
44.12
46.17
23.58
-10.1
-36.32
-41.88
-26.07
-0.67
17.52
16.62
-2.91
-28.59
-43.4
-35.68
-6.37
30.89
57.72
61.13
40.92
9.81
-14.03
-17.4
0.28
26.53
43.25
37.37
8.81
-29.34
-58.5
-65.48
-50.09
-24.92
-7.09
-7.6
-24.28
-42.94
-46.09
-23.95
18.82
64.67
92.61
89.66
57.72
12.18
-26.91
-45.77
-43.09
-29.43
-19.16
-21.23
-33.43
-43.91
-38.81
-11.26
33.15
78.34
106.03
105.38
78.66
40.13
7.86
-5.81
-0.42
12.88
18.81
7.3
-20.09
-50.78
-68.31
-62.21
-34.45
1.14
26.47
29.44
10.63
-17.08
-36.25
-34.88
-13.34
15.81
35.42
33.65
10.99
-19.68
-40.77
-39.81
-16.51
16.82
42.78
48.92
34.71
11.94
-2.77
1.9
24.66
51.56
63.99
49.45
9.55
-40.6
-80.3
-94.73
-82.73
-56.69
-34.58
-29.09
-40.5
-56.74
-61.28
-43.21
-4.45
40.64
72.85
78.35
56.26
19.06
-14.67
-30.44
-25.15
-8.07
6.11
6.86
-5.46
-19.54
-20.62
-0.25
37.28
75.91
96.47
87.33
51.37
4.5
-32.84
-46.92
-37.53
-17.3
-3.59
-7.98
-29.52
-55.24
-67.77
-55.37
-19.33
26.31
61.75
71.76
53.34
16.85
-20.28
-43.05
-46.22
-36.17
-25.3
-23.67
-32.4
-42.34
-40.21
-17.07
24.95
72.03
105.49
111.69
89.36
50.35
13.22
-7.06
-6.64
5.68
14.56
7.73
-16.23
-46.83
-67.7
-66.27
-41.57
-5.09
25.46
36.19
24.62
0.97
-18.27
-20.02
-2.22
24.68
44.24
43.63
21.55
-10.61
-35.22
-38.57
-18.86
12.4
36.8
39.85
19.08
-14.11
-40.82
-45.32
-24.03
12.1
43.56
52.96
34.82
-1.38
-36.89
-54.24
-46.96
-22.75
1.88
12
3.12
-15.98
-29.12
-22.88
4.56
41.4
68.41
69.69
41.93
-3.52
-46.81
-70.51
-68.48
-48.31
-25.61
-14.04
-17.27
-27.2
-29.81
-14.89
16.41
51.12
71.33
64.7
31.99
-12.5
-48.63
-61.05
-47.12
-17.84
9.12
19.59
10.54
-8.66
-22.61
-19.28
2.46
31.99
53.17
53.9
33.47
3.39
-18.91
-20.13
1.2
33.47
58.33
61.26
39.61
4.24
-26.84
-38.75
-28.01
-4.11
16.62
20.91
6.49
-16.35
-31.13
-24.9
3.87
43.63
75.99
85.83
69.2
35.41
1.3
-18.36
-18.68
-7.17
1.65
-4.78
-28.95
-61.33
-85.74
-88.42
-66.44
-29.74
4.11
19.59
11.61
-11.63
-33.88
-40.45
-26.77
-1.4
19.52
22.07
3.28
-26.55
-49.39
-50.1
-25.2
14.75
50.67
65.82
54.68
25.82
-3.37
-16.7
-8.1
15.11
37.18
43.05
27.4
-2.16
-29.91
-41.03
-30.36
-5.55
17.68
25.08
12.29
-12.36
-32.83
-35.3
-16.64
12.92
35.16
34.35
6.4
-38.4
-80.67
-102.38
-96.31
-69.21
-37.43
-16.97
-14.63
-24.49
-32.18
-23.82
5.35
47.34
85.64
104.13
95.98
67.56
34.81
13.88
12.34
25.17
38.04
36.81
16.26
-15.89
-42.9
-48.49
-26.69
13.98
54.46
75.02
65.93
32.63
-7.91
-36.78
-43.42
-30.58
-11.53
-0.75
-4.88
-18.44
-27.52
-19.02
10.44
51.17
84.68
93.9
72.6
29.18
-17.69
-49.11
-55.55
-40.86
-19
-4.75
-4.99
-14.75
-20.9
-10.89
18.61
58.41
91.03
100.22
79.85
37.55
-9.38
-43.31
-55.23
-48.78
-37.05
-34.07
-46.17
-67.99
-85.64
-85.08
-60.86
-20.12
20.58
44.2
42.31
19.58
-9.29
-28.3
-29.09
-15.39
-0.23
2.58
-12.92
-40.55
-65.29
-71.67
-52.77
-14.75
26.03
51.72
52.42
31.49
3.34
-14.94
-13.17
6.26
30.12
42.6
34.79
10.5
-15.89
-27.94
-16.8
13.08
45.93
63.69
55.99
26.13
-10.63
-35.75
-37.53
-17.62
10.13
27.88
24.03
-0.03
-30.88
-51.06
-49.45
-27.69
0.95
19.97
19.58
2.59
-17.37
-24.55
-10.76
18.93
48.62
60.55
45.34
7.65
-36.02
-66.46
-72.11
-54.86
-28.49
-9.7
-8.31
-21.5
-35.82
-35.69
-13.43
25.05
62.76
80.67
68.58
30.85
-15.76
-51.46
-63.92
-53.92
-33.85
-18.85
-17.53
-26.68
-33.48
-23.97
7.73
54.49
98.94
122.58
115.72
82.86
40.23
6.86
-5.52
2.05
17.15
24.41
14.81
-8.6
-32.56
-41.44
-26.62
7.77
46.5
71.24
70.24
44.51
6.97
-25.12
-39.53
-35.25
-22.37
-14.84
-21.61
-40.65
-59.84
-64.14
-45.17
-7
34.81
61.24
60.16
32.88
-6.45
-38.7
-50.11
-39.25
-17.21
-0.29
-0.27
-17.23
-39.42
-50.38
-38.64
-4.86
